Voltage
0.926923
0.935948
0.933692
0.93756
0.946262
0.943039
0.944006
0.951097
0.945295
0.943684
0.949163
0.941105
0.936915
0.939816
0.928857
0.925956
0.931758
0.925634
0.928535
0.940461
0.938849
0.949485
0.958188
0.959477
0.971403
0.98075
0.979139
0.989775
0.991387
0.983651
0.989453
0.986552
0.974626
0.980428
0.976882
0.967858
0.977527
0.97656
0.973015
0.98913
0.996221
0.998155
1.020718
1.027164
1.028453
1.042635
1.045858
1.040379
1.039412
1.04328
1.030387
1.024263
1.024585
1.01137
1.004924
1.008147
0.999122
0.997188
1.005246
1.000089
1.002345
1.01266
1.012015
1.017817
1.030065
1.02942
1.031032
1.036511
1.027486
1.020718
1.019751
1.004924
0.99461
0.98913
0.97237
0.961089
0.955932
0.942072
0.93337
0.934659
0.924989
0.922411
0.928535
0.9237
0.924989
0.93337
0.927246
0.926923
0.931113
0.920799
0.920155
0.917576
0.90565
0.908873
0.907584
0.897592
0.901138
0.90565
0.898237
0.904039
0.903716
0.902749
0.909518
0.908229
0.908229
0.91532
0.910807
0.90984
0.915642
0.908229
0.905328
0.910485
0.90146
0.89727
0.90146
0.892758
0.889857
0.895336
0.886311
0.895014
0.893402
0.884377
0.8847
0.887278
0.87503
0.876964
0.874063
0.872129
0.879865
0.879865
0.886634
0.900816
0.90565
0.918865
0.941428
0.958188
0.986874
1.030065
1.072611
1.124504
1.189934
1.247951
1.314671
1.385259
1.458103
1.513541
1.573492
1.638923
1.686626
1.733362
1.782677
1.817165
1.836182
1.851975
1.856165
1.854554
1.82619
1.785578
1.731428
1.673411
1.593798
1.511607
1.429416
1.344324
1.24505
1.154157
1.0739
0.991387
0.933047
0.89308
0.847956
0.811856
0.788972
0.756418
0.738368
0.718384
0.701946
0.697756
0.686475
0.690987
0.691632
0.689053
0.698723
0.702591
0.713227
0.730632
0.736434
0.749971
0.768988
0.770599
0.785104
0.789938
0.798963
0.81379
0.813468
0.825393
0.830228
0.827327
0.837319
0.8486
0.843765
0.853435
0.85408
0.859559
0.871162
0.870518
0.874063
0.883088
0.878576
0.878253
0.885022
0.877286
0.878576
0.881154
0.872774
0.874063
0.879865
0.871807
0.876964
0.886311
0.88051
0.890824
0.89308
0.897592
0.906295
0.90565
0.908873
0.916931
0.913386
0.914675
0.919832
0.912097
0.910163
0.914998
0.908229
0.908229
0.917576
0.912419
0.914998
0.923378
0.91951
0.932403
0.934014
0.930791
0.938204
0.944328
0.938204
0.94175
0.949163
0.939494
0.943039
0.944328
0.932725
0.933692
0.930146
0.926923
0.932403
0.930469
0.932725
0.942717
0.942394
0.948841
0.961411
0.962056
0.966568
0.977527
0.975915
0.980428
0.989453
0.98494
0.983651
0.987519
0.979461
0.97656
0.980428
0.973982
0.97237
0.979461
0.975271
0.977205
0.987519
0.987197
0.992031
1.004602
1.005569
1.012015
1.022974
1.022974
1.026842
1.035866
1.031676
1.030387
1.033288
1.024908
1.022007
1.026842
1.022329
1.025552
1.034577
1.0349
1.041024
1.051982
1.056172
1.060685
1.070354
1.082925
1.080669
1.090016
1.099685
1.096462
1.106132
1.112578
1.108388
1.112578
1.118702
1.112256
1.111933
1.119991
1.114512
1.116123
1.127082
1.128372
1.133851
1.146744
1.149645
1.156735
1.16705
1.178331
1.171884
1.175108
1.17962
1.168339
1.164471
1.169306
1.161248
1.159959
1.166727
1.162215
1.162537
1.168339
1.16576
1.168661
1.176397
1.186066
1.181554
1.19348
1.194124
1.185099
1.181232
1.183166
1.170273
1.162215
1.160926
1.149
1.14352
1.143198
1.135463
1.126438
1.124181
1.121925
1.107421
1.108388
1.109355
1.101297
1.106132
1.106132
1.095817
1.090016
1.089693
1.072288
1.058429
1.052627
1.031999
1.01685
1.009759
0.990742
0.979461
0.974949
0.960444
0.951097
0.949163
0.934981
0.928535
0.928857
0.917898
0.913064
0.914031
0.901783
0.894692
0.893725
0.877286
0.867617
0.865038
0.847633
0.839253
0.83603
0.819592
0.816368
0.807988
0.80412
0.807666
0.80122
0.798963
0.806054
0.798963
0.800897
0.805087
0.795418
0.797674
0.790905
0.788005
0.790261
0.779947
0.775434
0.779624
0.770277
0.771566
0.76931
0.766087
0.771244
0.766087
0.766409
0.776079
0.771566
0.776401
0.788327
0.783492
0.790261
0.788972
0.78736
0.793162
0.784459
0.788972
0.78736
0.776401
0.776079
0.770922
0.768666
0.773823
0.769955
0.770277
0.780914
0.776401
0.784781
0.792195
0.791228
0.801542
0.802831
0.805732
0.815402
0.810889
0.817658
0.817658
0.808311
0.8096
0.805732
0.800253
0.802831
0.795096
0.793806
0.800253
0.797352
0.810889
0.811856
0.807666
0.814757
0.81798
0.818302
0.82636
0.823782
0.824749
0.832484
0.827327
0.827972
0.833129
0.825071
0.827972
0.834418
0.826038
0.832162
0.829261
0.830873
0.838931
0.837964
0.841187
0.852146
0.848923
0.861815
0.859559
0.852146
0.854724
0.853757
0.84441
0.847311
0.839253
0.836997
0.841509
0.835708
0.83603
0.845699
0.843121
0.85698
0.859881
0.856013
0.866005
0.875353
0.871162
0.879543
0.877609
0.877931
0.884055
0.877286
0.874063
0.880187
0.871162
0.877609
0.875997
0.867617
0.871485
0.878253
0.872452
0.881154
0.881154
0.8847
0.893725
0.890824
0.892113
0.898882
0.894047
0.894047
0.899526
0.892113
0.88889
0.893725
0.885022
0.892758
0.890824
0.884377
0.887278
0.895981
0.889857
0.896948
0.899204
0.901783
0.910807
0.910485
0.913708
0.921122
0.917576
0.917576
0.921444
0.913386
0.908551
0.911452
0.899526
0.894692
0.898237
0.890501
0.889857
0.90146
0.898237
0.914353
0.915642
0.912419
0.917898
0.927246
0.920799
0.925634
0.929502
0.91951
0.921444
0.918221
0.913064
0.91532
0.909196
0.906617
0.910807
0.905328
0.90565
0.912097
0.909196
0.910807
0.920799
0.918543
0.922088
0.934337
0.93337
0.938204
0.948196
0.941428
0.936593
0.939816
0.927246
0.930146
0.926279
0.915642
0.918543
0.922411
0.914998
0.919832
0.926601
0.918543
0.9237
0.928213
0.925634
0.93337
0.930791
0.932403
0.93756
0.93337
0.93337
0.937237
0.929179
0.926279
0.928857
0.921444
0.920477
0.927246
0.923378
0.925634
0.934659
0.930791
0.934981
0.945618
0.942717
0.945295
0.954643
0.947874
0.953031
0.953998
0.944006
0.949163
0.944651
0.93208
0.937237
0.931758
0.921766
0.921766
0.929179
0.921444
0.928213
0.93756
0.933047
0.940138
0.949808
0.948196
0.955609
0.955287
0.952709
0.956254
0.951097
0.946585
0.948841
0.94175
0.940461
0.943039
0.939171
0.939816
0.945295
0.943684
0.947552
0.957543
0.956899
0.962056
0.973015
0.972692
0.977849
0.987197
0.983973
0.98494
0.990097
0.983006
0.98075
0.984618
0.978172
0.978172
0.984296
0.979783
0.981717
0.990742
0.99042
0.996544
1.008792
1.010403
1.015883
1.02523
1.022329
1.023296
1.027164
1.020395
1.016205
1.016527
1.00718
1.003312
1.003957
0.997511
0.996544
1.000412
0.997511
0.997188
0.999767
0.994288
0.992031
0.99461
0.98913
0.98494
0.986552
0.978816
0.974304
0.975271
0.965924
0.960444
0.956899
0.944006
0.934014
0.931113
0.91951
0.914353
0.91532
0.905328
0.903716
0.907584
0.900816
0.901138
0.90984
0.904361
0.904683
0.91113
0.904039
0.910807
0.910807
0.902427
0.902105
0.90565
0.894369
0.895658
0.893725
0.890179
0.894692
0.892435
0.895014
0.903072
0.90146
0.90565
0.913386
0.912097
0.913064
0.919188
0.912097
0.908229
0.91113
0.898882
0.891468
0.891791
0.877931
0.879865
0.87084
0.856336
0.85698
0.861493
0.851501
0.858592
0.859559
0.868584
0.886311
0.895336
0.913064
0.942394
0.961089
0.993965
1.030387
1.060685
1.102264
1.155124
1.195091
1.244406
1.304035
1.356572
1.416524
1.481309
1.545128
1.593798
1.647626
1.70661
1.75947
1.79557
1.83457
1.868414
1.889042
1.878728
1.860033
1.828768
1.775586
1.696618
1.616361
1.536103
1.447788
1.345614
1.261166
1.163826
1.067776
0.992354
0.944973
0.895981
0.867617
0.839253
0.807021
0.787682
0.766732
0.74707
0.736756
0.719351
0.709682
0.710004
0.694855
0.698078
0.694533
0.69969
0.713549
0.719029
0.7345
0.753517
0.758029
0.775757
0.78317
0.793806
0.810567
0.81379
0.820559
0.833774
0.831517
0.83603
0.845055
0.838608
0.845055
0.843121
0.844732
0.85408
0.852146
0.856013
0.867617
0.86665
0.87084
0.88341
0.882443
0.898559
0.900171
0.896948
0.902105
0.91113
0.902427
0.903716
0.905006
0.893725
0.895658
0.890824
0.889534
0.894369
0.890179
0.891791
0.900171
0.897915
0.902105
0.913064
0.911774
0.915642
0.926601
0.922088
0.923378
0.932403
0.927246
0.930791
0.934337
0.926923
0.937237
0.934014
0.925956
0.928535
0.935948
0.930469
0.938849
0.947229
0.941428
0.948196
0.955932
0.951742
0.957221
0.961089
0.958833
0.96399
0.960767
0.957221
0.9627
0.956576
0.956576
0.960122
0.954965
0.954643
0.9598
0.958833
0.9627
0.972692
0.972692
0.978494
0.988486
0.988486
0.993321
1.001701
0.998478
0.999122
1.003957
0.996866
0.993965
0.997511
0.988808
0.986874
0.992031
0.987197
0.98913
0.997833
0.996544
1.001056
1.009436
1.009759
1.014271
1.023618
1.024908
1.028453
1.0378
1.036511
1.036833
1.04199
1.039412
1.035222
1.036833
1.03909
1.032966
1.040701
1.048759
1.044569
1.051982
1.064875
1.063908
1.077768
1.086148
1.083892
1.092917
1.099363
1.094851
1.097107
1.105809
1.100975
1.101619
1.108388
1.102908
1.104198
1.112578
1.109677
1.111933
1.121603
1.125471
1.130628
1.14062
1.153835
1.150289
1.16576
1.170917
1.167694
1.170917
1.180587
1.175108
1.174141
1.176397
1.166405
1.161893
1.163504
1.160281
1.156091
1.160281
1.166405
1.158669
1.170273
1.173496
1.170917
1.173496
1.18381
1.178975
1.178331
1.182521
1.172851
1.16705
1.165116
1.15738
1.141587
1.134818
1.127082
1.105809
1.104842
1.093884
1.078735
1.074867
1.071966
1.059073
1.052949
1.056172
1.044569
1.0378
1.036189
1.019106
1.00718
1.000412
0.979461
0.964957
0.956576
0.93627
0.923378
0.917576
0.901783
0.893725
0.894369
0.882121
0.878576
0.882121
0.870195
0.870518
0.86246
0.857947
0.859881
0.849889
0.84441
0.84441
0.832162
0.83055
0.82636
0.811534
0.807988
0.80412
0.791872
0.790905
0.782848
0.779624
0.786715
0.781558
0.796063
0.796385
0.790905
0.796707
0.793806
0.793484
0.797674
0.789294
0.786715
0.789938
0.779302
0.776723
0.781558
0.76931
0.772533
0.767054
0.766409
0.774145
0.769955
0.784459
0.785426
0.781558
0.790905
0.791228
0.794129
0.801542
0.797674
0.797029
0.803153
0.794451
0.794129
0.798641
0.788649
0.79155
0.786071
0.787682
0.794773
0.791872
0.793484
0.805087
0.79993
0.805732
0.810244
0.805087
0.810889
0.807021
0.807021
0.813468
0.805732
0.802831
0.810244
0.800575
0.800897
0.80541
0.795418
0.80122
0.798319
0.802509
0.812823
0.814757
0.819914
0.832484
0.829906
0.835063
0.845055
0.837641
0.841187
0.837641
0.835063
0.836674
0.828939
0.826038
0.831195
0.824426
0.828294
0.833451
0.827327
0.834418
0.843765
0.839898
0.8486
0.847956
0.851179
0.858914
0.855369
0.856658
0.863427
0.857625
0.85698
0.863749
0.855047
0.858914
0.858914
0.848923
0.851823
0.850534
0.8486
0.855047
0.85408
0.858592
0.87084
0.872452
0.877609
0.889857
0.887923
0.889212
0.897915
0.891146
0.896948
0.894369
0.88341
0.882121
0.885667
0.873741
0.875353
0.874063
0.872129
0.878898
0.877609
0.882121
0.891146
0.889212
0.891791
0.900816
0.895658
0.896948
0.905328
0.898882
0.898559
0.905006
0.896625
0.905328
0.900816
0.892113
0.891791
0.896948
0.887923
0.891146
0.896948
0.889212
0.896303
0.894047
0.896948
0.903716
0.900816
0.902105
0.910163
0.90565
0.905006
0.90984
0.902749
0.899204
0.904683
0.896303
0.894369
0.90146
0.895014
0.902427
0.905973
0.903072
0.912097
0.921766
0.918221
0.926923
0.934659
0.926923
0.928857
0.933047
0.920155
0.920155
0.914998
0.908229
0.908229
0.901783
0.899849
0.904683
0.899849
0.901783
0.910163
0.908551
0.912097
0.923055
0.919832
0.922733
0.932403
0.927246
0.927568
0.934337
0.927568
0.93208
0.931113
0.921766
0.927568
0.921766
0.911452
0.911774
0.918865
0.910163
0.915642
0.926923
0.919188
0.927568
0.929179
0.929502
0.936593
0.933047
0.932403
0.935948
0.929179
0.925634
0.926923
0.918221
0.915964
0.918865
0.912419
0.913064
0.91951
0.914031
0.916287
0.926601
0.924667
0.928535
0.941428
0.938527
0.944651
0.951097
0.943684
0.952709
0.948841
0.937882
0.940783
0.936915
0.924345
0.925312
0.930146
0.917898
0.924989
0.922733
0.925312
0.93627
0.935948
0.94175
0.953998
0.953031
0.954965
0.961734
0.954965
0.953031
0.956899
0.948196
0.945618
0.95013
0.94175
0.939494
0.94594
0.94175
0.944328
0.955287
0.95432
0.958188
0.970114
0.967213
0.969147
0.979783
0.975593
0.978816
0.989453
0.984618
0.987841
0.994288
0.988808
0.987841
0.995577
0.988486
0.988808
0.997511
0.992998
0.994932
1.008792
1.007825
1.014594
1.031032
1.032643
1.03909
1.050048
1.044891
1.042313
1.046181
1.036833
1.030387
1.031676
1.019106
1.010081
1.00847
0.996866
0.992676
0.996544
0.986874
0.98494
0.987841
0.980106
0.979461
0.983973
0.977205
0.975271
0.978816
0.969469
0.96399
0.965279
0.951419
0.943361
0.941105
0.926601
0.917254
0.918543
0.907907
0.905006
0.912741
0.905973
0.919188
0.919832
0.915642
0.919188
0.92789
0.920155
0.923378
0.925634
0.916931
0.919188
0.913708
0.910163
0.911452
0.903716
0.900493
0.902427
0.894369
0.89308
0.899204
0.895336
0.899204
0.91113
0.90984
0.914353
0.925956
0.922411
0.931436
0.928535
0.917576
0.914353
0.914031
0.898882
0.894692
0.886634
0.874063
0.872129
0.862782
0.859237
0.86246
0.857947
0.861493
0.874063
0.876964
0.889212
0.91113
0.922733
0.952386
0.978816
1.002345
1.050048
1.091305
1.130628
1.179942
1.24215
1.293076
1.353349
1.423292
1.486144
1.548029
1.620551
1.679213
1.729817
1.784611
1.841339
1.884852
1.915472
1.942869
1.956407
1.958663
1.937067
1.886463
1.826834
1.75947
1.6747
1.577682
1.477764
1.382035
1.27277
1.172851
1.085826
0.999767
0.941105
0.902427
0.861493
0.83184
0.810889
0.782525
0.766409
0.753839
0.732888
0.726442
0.71645
0.711938
0.717739
0.712582
0.722574
0.729665
0.728054
0.741269
0.746426
0.756095
0.774467
0.779302
0.79574
0.8096
0.810889
0.824426
0.828294
0.834418
0.845377
0.842154
0.842798
0.849245
0.841832
0.845699
0.849245
0.842476
0.846666
0.853113
0.846344
0.853435
0.853757
0.855369
0.863427
0.860848
0.861815
0.871162
0.866328
0.867295
0.876642
0.87084
0.876642
0.878576
0.868906
0.871485
0.878576
0.868906
0.87503
0.872452
0.875353
0.885989
0.885344
0.890501
0.900493
0.898559
0.90146
0.911774
0.907907
0.910163
0.919188
0.913386
0.9237
0.921122
0.913386
0.915642
0.923378
0.915642
0.920799
0.925312
0.917576
0.921766
0.924989
0.926601
0.934337
0.934337
0.937882
0.945295
0.943039
0.944651
0.952386
0.945618
0.944973
0.949485
0.94175
0.939171
0.944973
0.93756
0.938204
0.948196
0.945295
0.953353
0.963023
0.963023
0.978816
0.98623
0.985907
0.999445
1.001056
0.994932
1.001056
0.998155
0.987841
0.989775
0.99042
0.981073
0.985263
0.988486
0.983973
0.991064
0.999445
0.996866
1.007825
1.016527
1.014594
1.024908
1.032321
1.029742
1.03361
1.044247
1.038123
1.036833
1.042313
1.034255
1.033933
1.042957
1.041346
1.046825
1.059396
1.059073
1.065197
1.076801
1.077445
1.083569
1.095817
1.097107
1.101942
1.110966
1.110966
1.110322
1.112256
1.111611
1.10452
1.105487
1.110644
1.101942
1.11419
1.115157
1.111611
1.115479
1.129983
1.129661
1.136752
1.152868
1.155769
1.165438
1.178653
1.178008
1.181232
1.186711
1.191868
1.178008
1.176397
1.173818
1.157702
1.158347
1.151578
1.14062
1.137719
1.146744
1.14352
1.150289
1.165438
1.168984
1.178008
1.191546
1.194769
1.194769
1.198314
1.195736
1.178331
1.176075
1.161248
1.139975
1.125793
1.119347
1.099685
1.087115
1.082925
1.067131
1.060685
1.061652
1.051338
1.047148
1.046825
1.035544
1.029742
1.027486
1.016205
1.007503
0.999767
0.984296
0.971403
0.963345
0.948196
0.936593
0.931758
0.918543
0.910163
0.908873
0.896948
0.891146
0.892435
0.882443
0.876964
0.87922
0.867617
0.869228
0.862782
0.848923
0.846989
0.839253
0.828294
0.825071
0.814112
0.807666
0.807988
0.796385
0.792839
0.797996
0.789616
0.792517
0.792517
0.789938
0.79574
0.791872
0.792517
0.799286
0.792517
0.802509
0.797996
0.788005
0.788327
0.781558
0.777368
0.780269
0.772211
0.769955
0.778013
0.771244
0.778013
0.779624
0.780914
0.790261
0.788649
0.790905
0.799608
0.79574
0.800575
0.806054
0.797996
0.800253
0.79574
0.795096
0.80122
0.793162
0.790905
0.797674
0.790261
0.794773
0.794773
0.793484
0.802187
0.79993
0.804443
0.815402
0.812823
0.827972
0.827327
0.820881
0.825393
0.82217
0.821203
0.825071
0.81798
0.816046
0.821203
0.81379
0.823459
0.823782
0.819269
0.826683
0.829583
0.833129
0.842798
0.842154
0.843121
0.851179
0.845055
0.851179
0.851501
0.843121
0.845055
0.849567
0.836674
0.84022
0.834741
0.834741
0.841832
0.837964
0.839898
0.852468
0.849245
0.858914
0.863749
0.857947
0.865683
0.868584
0.868906
0.875675
0.870518
0.868584
0.871485
0.86246
0.858592
0.863427
0.855369
0.865683
0.863427
0.856658
0.863427
0.872129
0.867617
0.875997
0.876319
0.879865
0.888568
0.885344
0.886956
0.896303
0.889534
0.894047
0.892113
0.881154
0.882443
0.885989
0.881154
0.887601
0.8847
0.886956
0.895336
0.892113
0.895336
0.904683
0.903072
0.905328
0.916287
0.911452
0.919188
0.921122
0.913708
0.914675
0.918543
0.908551
0.910485
0.912741
0.901783
0.904039
0.901138
0.900493
0.907262
0.905006
0.908229
0.917254
0.915964
0.917898
0.925634
0.920799
0.920799
0.926601
0.919188
0.914675
0.919188
0.908551
0.912097
0.908229
0.897592
0.897592
0.905006
0.898237
0.903716
0.914675
0.907584
0.917576
0.920155
0.926279
0.936915
0.937237
0.939816
0.94594
0.938849
0.93337
0.934014
0.922088
0.916931
0.91951
0.910807
0.90984
0.916609
0.911452
0.913386
0.924667
0.921444
0.934659
0.936593
0.931758
0.938527
0.942394
0.934337
0.936915
0.940138
0.929179
0.929179
0.925634
0.918221
0.919188
0.915642
0.912097
0.916931
0.913708
0.915964
0.926601
0.924345
0.928213
0.940461
0.940461
0.945618
0.956899
0.953353
0.953676
0.957543
0.947229
0.942072
0.943361
0.930791
0.925956
0.929824
0.921122
0.930146
0.928213
0.920155
0.924345
0.933692
0.929502
0.93627
0.940461
0.939816
0.94594
0.945295
0.943039
0.94594
0.939494
0.937237
0.939171
0.931758
0.928857
0.931758
0.924345
0.923378
0.929179
0.925956
0.928857
0.941428
0.941428
0.948841
0.962378
0.961411
0.964957
0.974626
0.966891
0.96399
0.96818
0.955932
0.959477
0.956576
0.946585
0.955287
0.952064
0.943361
0.944328
0.953031
0.945295
0.950775
0.959477
0.95432
0.962378
0.971725
0.965924
0.973659
0.983651
0.97656
0.979783
0.975271
0.967858
0.967535
0.960444
0.955932
0.958188
0.954643
0.955287
0.96399
0.964957
0.971081
0.985263
0.989453
0.996544
1.010081
1.010403
1.015883
1.023941
1.020073
1.018139
1.020395
1.012982
1.006858
1.006858
0.997511
0.993643
0.997188
0.992998
0.993321
1.000734
1.000412
1.004924
1.014594
1.015883
1.019106
1.026842
1.024908
1.024585
1.02942
1.024908
1.018139
1.016527
1.00847
1.000412
0.999767
0.991709
0.983651
0.983651
0.979461
0.976238
0.981717
0.980428
0.98075
0.985585
0.979783
0.974949
0.974949
0.963023
0.954643
0.952386
0.935948
0.926279
0.921766
0.907907
0.900171
0.900171
0.890824
0.888245
0.895336
0.891146
0.895014
0.907907
0.905973
0.920799
0.921444
0.914031
0.916931
0.921766
0.913386
0.916609
0.91951
0.90984
0.91113
0.908551
0.903716
0.90694
0.902427
0.903072
0.909518
0.906295
0.907907
0.914031
0.908873
0.906617
0.912097
0.902749
0.899526
0.903394
0.891146
0.894047
0.887601
0.874386
0.869551
0.870195
0.856658
0.859559
0.856658
0.862782
0.87922
0.890501
0.910485
0.942072
0.969791
1.010081
1.065197
1.11419
1.169951
1.232802
1.286307
1.345614
1.410722
1.47583
1.527723
1.586063
1.645369
1.70242
1.74142
1.786867
1.839405
1.884852
1.907414
1.931588
1.94996
1.951249
1.921596
1.882273
1.831992
1.765272
1.675667
1.583162
1.490334
1.393317
1.280828
1.190257
1.09066
0.9988
0.941428
0.896948
0.852468
0.822493
0.804765
0.774467
0.761252
0.743525
0.733211
0.734178
0.724508
0.724186
0.729021
0.726764
0.735145
0.733533
0.738045
0.751905
0.752227
0.764475
0.772856
0.778335
0.792517
0.796707
0.80412
0.819269
0.818947
0.834741
0.836674
0.832807
0.84022
0.841187
0.838286
0.842798
0.836674
0.83603
0.843765
0.838286
0.838286
0.846989
0.841187
0.845377
0.856013
0.850856
0.85827
0.861815
0.864394
0.873419
0.871485
0.872774
0.881477
0.873419
0.872129
0.876964
0.868906
0.87503
0.873419
0.864716
0.867617
0.874386
0.867295
0.873419
0.872774
0.876319
0.885344
0.8847
0.888568
0.899849
0.896948
0.900171
0.909518
0.904683
0.904361
0.911774
0.904361
0.913708
0.91113
0.901138
0.904683
0.909518
0.900816
0.905006
0.90694
0.90694
0.915964
0.914353
0.91951
0.929502
0.929502
0.933047
0.942394
0.939816
0.94175
0.949485
0.943684
0.942717
0.947874
0.937882
0.934337
0.940138
0.93208
0.936593
0.941428
0.93756
0.954643
0.95851
0.95851
0.973337
0.979783
0.976882
0.982684
0.98913
0.980106
0.98075
0.984296
0.974626
0.974626
0.979461
0.970114
0.974304
0.980106
0.974304
0.983006
0.99461
0.992031
1.003957
1.015883
1.01137
1.020395
1.02942
1.023296
1.029742
1.035866
1.028453
1.033933
1.040057
1.034577
1.038767
1.047792
1.042635
1.050371
1.058106
1.052949
1.067131
1.068743
1.065197
1.074867
1.085181
1.084214
1.090338
1.104198
1.100975
1.103875
1.11419
1.109999
1.112578
1.120314
1.115479
1.115479
1.119991
1.113867
1.113223
1.11838
1.119669
1.120636
1.129983
1.139975
1.135463
1.141587
1.149967
1.14481
1.149967
1.156413
1.150289
1.148678
1.153835
1.142231
1.137396
1.137719
1.126438
1.123859
1.127405
1.123859
1.126438
1.136107
1.144165
1.139975
1.146744
1.149967
1.138041
1.143198
1.137396
1.124181
1.114834
1.112578
1.092917
1.079379
1.072933
1.055206
1.042957
1.040701
1.026842
1.021685
1.024585
1.016527
1.01266
1.015883
1.004279
0.996866
0.993643
0.976882
0.963667
0.95851
0.941105
0.929502
0.927246
0.910807
0.900816
0.898882
0.883088
0.887278
0.876642
0.863104
0.864071
0.864716
0.851501
0.853113
0.845377
0.842798
0.845699
0.83603
0.829583
0.830873
0.817013
0.811211
0.811534
0.79574
0.794773
0.786071
0.782203
0.786715
0.778657
0.782848
0.786393
0.779302
0.782203
0.781558
0.781881
0.789294
0.785748
0.785748
0.795418
0.790583
0.791872
0.800253
0.790261
0.792195
0.784459
0.779947
0.78317
0.773178
0.782525
0.778013
0.770922
0.776401
0.775112
0.778657
0.789616
0.788005
0.796063
0.802831
0.798319
0.804765
0.80541
0.80412
0.807988
0.802187
0.799286
0.802187
0.792517
0.795096
0.798319
0.788972
0.795418
0.793484
0.79574
0.805732
0.804765
0.808633
0.821526
0.81798
0.826038
0.833774
0.824104
0.828294
0.823459
0.820881
0.826038
0.818625
0.817335
0.825716
0.818947
0.824749
0.828939
0.824104
0.832484
0.83184
0.836997
0.848278
0.845377
0.847311
0.85698
0.849889
0.851179
0.85698
0.843443
0.845055
0.837641
0.834741
0.837964
0.829906
0.829583
0.837319
0.835063
0.8486
0.853757
0.85279
0.863427
0.873096
0.873741
0.882121
0.879865
0.877931
0.879543
0.87084
0.866328
0.868906
0.859881
0.856658
0.863749
0.85698
0.859559
0.869551
0.863104
0.870518
0.869873
0.873419
0.883088
0.880187
0.882121
0.889534
0.884377
0.8847
0.892113
0.885667
0.892758
0.892435
0.88341
0.885989
0.892435
0.884377
0.891146
0.889857
0.892113
0.899849
0.897915
0.901783
0.910807
0.908229
0.91113
0.918865
0.914353
0.913064
0.918221
0.907584
0.908229
0.907584
0.895658
0.894047
0.898559
0.88889
0.891468
0.891791
0.891468
0.899204
0.898237
0.902105
0.911774
0.910163
0.912741
0.920799
0.915964
0.914675
0.920799
0.91113
0.916287
0.913386
0.903394
0.901138
0.906617
0.897592
0.900816
0.900171
0.899526
0.905973
0.903716
0.907262
0.916609
0.914998
0.918865
0.926923
0.922088
0.92789
0.928857
0.920155
0.91951
0.925312
0.914353
0.916931
0.916609
0.911452
0.914353
0.91113
0.912741
0.920799
0.918543
0.922733
0.93337
0.930469
0.933692
0.94175
0.93627
0.934981
0.941428
0.93208
0.932725
0.932403
0.922411
0.924989
0.923378
0.914353
0.91951
0.925312
0.919832
0.926923
0.930146
0.931758
0.940138
0.939171
0.943361
0.951742
0.949808
0.950775
0.955287
0.947874
0.944006
0.946262
0.93627
0.93208
0.935303
0.924345
0.921766
0.928535
0.922411
0.929179
0.936915
0.934981
0.95013
0.953676
0.950775
0.954965
0.9627
0.953353
0.956254
0.958188
0.944651
0.943684
0.936915
0.929179
0.930146
0.923378
0.923055
0.929824
0.926923
0.931113
0.943361
0.942394
0.947552
0.95851
0.954643
0.956899
0.96399
0.956254
0.953676
0.958833
0.949808
0.949808
0.951742
0.942072
0.949485
0.946262
0.937882
0.940461
0.949808
0.944328
0.953031
0.959155
0.960767
0.970114
0.973982
0.973982
0.979461
0.978494
0.974304
0.978494
0.97237
0.970436
0.972692
0.966246
0.964957
0.969147
0.964957
0.96818
0.978816
0.981073
0.989453
1.005569
1.009759
1.019106
1.032966
1.032966
1.037478
1.045536
1.040057
1.040057
1.044569
1.036833
1.032643
1.033933
1.024908
1.022007
1.026519
1.019751
1.019106
1.02523
1.020395
1.021685
1.028131
1.023941
1.024263
1.029098
1.022007
1.018784
1.019106
1.008147
1.000089
0.995899
0.981073
0.972048
0.969469
0.956576
0.950775
0.951742
0.944006
0.942717
0.948196
0.94175
0.939494
0.945618
0.937237
0.934981
0.939494
0.928535
0.929824
0.925956
0.912741
0.91113
0.908873
0.895014
0.894047
0.897592
0.8847
0.889212
0.885989
0.889212
0.898882
0.899204
0.904361
0.916287
0.913708
0.91532
0.922411
0.914675
0.916931
0.917898
0.907584
0.907584
0.909196
0.897592
0.898237
0.902105
0.891468
0.895658
0.891146
0.892113
0.898559
0.895336
0.895981
0.902427
0.894692
0.891146
0.894369
0.882766
0.88889
0.881154
0.870518
0.875997
0.883733
0.882766
0.898559
0.90984
0.929824
0.963023
0.992998
1.038445
1.095495
1.14481
1.203794
1.269547
1.332076
1.390416
1.465838
1.523855
1.575104
1.629253
1.686626
1.740453
1.777842
1.822322
1.869703
1.909348
1.926431
1.940935
1.946092
1.932877
1.890331
1.838116
1.776553
1.70242
1.605724
1.507739
1.411689
1.314026
1.199926
1.102908
1.019428
0.943684
0.895658
0.860526
0.817013
0.794773
0.768666
0.75255
0.746426
0.732888
0.731277
0.733533
0.730954
0.741269
0.740946
0.754161
0.762864
0.761575
0.772856
0.775112
0.780591
0.793806
0.793162
0.803798
0.8096
0.806377
0.812823
0.814435
0.818302
0.831517
0.833451
0.84022
0.855047
0.856336
0.869873
0.875353
0.869873
0.874386
0.877931
0.866328
0.867939
0.860526
0.856336
0.85827
0.849889
0.848278
0.854724
0.850534
0.857947
0.864394
0.86246
0.871485
0.882443
0.876642
0.884055
0.88051
0.881799
0.886634
0.881477
0.881154
0.886956
0.88051
0.880187
0.888245
0.883088
0.893725
0.894692
0.889212
0.895336
0.905006
0.899526
0.907262
0.910163
0.910807
0.918543
0.916287
0.917576
0.925312
0.919832
0.918543
0.923055
0.916931
0.916287
0.924989
0.91951
0.919188
0.928535
0.922733
0.935626
0.937237
0.933692
0.940461
0.952386
0.950775
0.9598
0.970758
0.966891
0.974949
0.982039
0.974949
0.978172
0.973337
0.967535
0.96818
0.961411
0.960444
0.965601
0.963345
0.966568
0.974949
0.973337
0.977849
0.988808
0.988808
0.993965
1.003635
1.000412
1.001701
1.007503
1.001379
1.002345
1.009114
1.004924
1.006858
1.01266
1.009114
1.010403
1.016527
1.01556
1.020073
1.029742
1.029742
1.035222
1.046181
1.044891
1.047792
1.054883
1.049726
1.050048
1.052949
1.045536
1.042635
1.047148
1.042635
1.046181
1.056817
1.060685
1.067131
1.080991
1.088727
1.09614
1.109677
1.125471
1.125148
1.134818
1.145777
1.140942
1.151901
1.148678
1.136752
1.131917
1.135463
1.124504
1.123537
1.13095
1.127082
1.128372
1.137074
1.133529
1.137074
1.147388
1.148355
1.155769
1.168339
1.177041
1.177686
1.187678
1.194447
1.186066
1.198314
1.190901
1.181554
1.173818
1.173496
1.157058
1.146421
1.145454
1.132562
1.128049
1.132884
1.128372
1.131272
1.137074
1.134173
1.129016
1.129339
1.128694
1.112578
1.103875
1.099363
1.077445
1.074222
1.057139
1.035866
1.029742
1.018139
1.000412
0.999122
0.992031
0.979461
0.979783
0.976238
0.963345
0.969147
0.959477
0.944006
0.939816
0.935626
0.918221
0.91113
0.905973
0.885989
0.881799
0.871162
0.86246
0.860526
0.849245
0.843443
0.843443
0.833774
0.829583
0.834741
0.824749
0.823459
0.828294
0.817013
0.818625
0.810244
0.807666
0.808633
0.796707
0.790583
0.794129
0.781236
0.780269
0.776079
0.771566
0.776723
0.772211
0.773823
0.783492
0.779302
0.784459
0.788649
0.786393
0.793162
0.790905
0.790261
0.796385
0.788005
0.793806
0.786071
0.773178
0.7735
0.765765
0.764153
0.770277
0.764475
0.768988
0.779947
0.7735
0.782848
0.781881
0.784781
0.79574
0.79155
0.796063
0.806054
0.79993
0.804765
0.798963
0.797352
0.801864
0.794129
0.801542
0.798963
0.79155
0.79574
0.793162
0.793162
0.801864
0.798963
0.802509
0.814757
0.811534
0.818625
0.823137
0.822815
0.83055
0.827005
0.827327
0.834096
0.828939
0.827972
0.835385
0.826683
0.827005
0.832807
0.823782
0.829583
0.825716
0.828617
0.837641
0.835708
0.837964
0.848278
0.843121
0.848278
0.852146
0.843121
0.845055
0.838608
0.835708
0.84022
0.833129
0.832162
0.840542
0.836674
0.852468
0.853757
0.851179
0.859237
0.862782
0.863749
0.871485
0.869551
0.871162
0.878576
0.874386
0.873419
0.879865
0.87084
0.878898
0.873419
0.862782
0.864716
0.86665
0.858914
0.863749
0.860848
0.863749
0.872452
0.869873
0.872129
0.883733
0.88051
0.894047
0.89308
0.885344
0.889212
0.886956
0.881477
0.8847
0.878898
0.877286
0.883088
0.877286
0.878253
0.887601
0.8847
0.887923
0.898237
0.895014
0.902105
0.908229
0.900816
0.90565
0.908873
0.899526
0.90146
0.893725
0.889534
0.892435
0.885667
0.885344
0.892758
0.888245
0.889857
0.900816
0.897915
0.913064
0.915964
0.914675
0.924667
0.934981
0.929179
0.934014
0.932403
0.927568
0.928857
0.919188
0.913708
0.915964
0.90694
0.904683
0.908873
0.901783
0.900171
0.908551
0.904683
0.912419
0.919832
0.916931
0.927568
0.932725
0.926279
0.931436
0.934659
0.924022
0.926279
0.9237
0.922088
0.923378
0.915642
0.911452
0.914998
0.907584
0.907584
0.914353
0.91113
0.913064
0.922411
0.918543
0.923378
0.929179
0.922733
0.92789
0.932403
0.924022
0.927246
0.930791
0.91951
0.920155
0.918221
0.915642
0.921444
0.916609
0.917898
0.9237
0.920799
0.9237
0.932725
0.930469
0.933692
0.943039
0.939494
0.939816
0.945618
0.936593
0.939171
0.938204
0.926923
0.932403
0.928857
0.917576
0.920155
0.924667
0.917576
0.925312
0.928535
0.931113
0.940138
0.939494
0.941428
0.949485
0.94594
0.946262
0.953676
0.948196
0.945618
0.948841
0.940783
0.93756
0.941428
0.933047
0.929824
0.935303
0.928213
0.932725
0.938527
0.934981
0.948841
0.951097
0.945295
0.951419
0.960767
0.95432
0.960444
0.964957
0.953998
0.954643
0.954965
0.945295
0.947229
0.939816
0.938527
0.943039
0.939171
0.940783
0.949163
0.948518
0.953353
0.966891
0.96818
0.973982
0.985263
0.98075
0.98075
0.985263
0.976238
0.973015
0.979461
0.971403
0.979783
0.979461
0.97237
0.977527
0.987197
0.983006
0.992676
1.004279
1.004279
1.015883
1.02523
1.027164
1.033933
1.038445
1.031032
1.031354
1.032321
1.018461
1.016527
1.017817
1.001056
0.999445
0.996221
0.98913
0.992676
0.991387
0.992031
1.002023
1.002345
1.005569
1.011693
1.005891
1.003957
1.004279
0.99461
0.987519
0.98494
0.972048
0.963345
0.957866
0.943039
0.933047
0.929179
0.916609
0.912419
0.917254
0.911452
0.912097
0.920477
0.915964
0.921766
0.924022
0.915642
0.918221
0.920799
0.910807
0.911774
0.913708
0.899849
0.90146
0.895014
0.89308
0.89727
0.890501
0.890824
0.896625
0.890824
0.890824
0.900171
0.895336
0.908873
0.907907
0.901783
0.90565
0.912097
0.90146
0.902749
0.899204
0.892758
0.892435
0.881799
0.876319
0.876319
0.864716
0.859559
0.863749
0.855369
0.865683
0.863749
0.859237
0.868262
0.88051
0.878576
0.89308
0.899526
0.913386
0.935303
0.948841
0.973659
1.011693
1.046503
1.093884
1.152868
1.201538
1.25891
1.325308
1.388804
1.451334
1.526756
1.594765
1.652138
1.713378
1.773652
1.83038
1.866157
1.903546
1.933844
1.951249
1.943514
1.926431
1.895488
1.845851
1.771718
1.69275
1.615394
1.517087
1.4133
1.315638
1.224422
1.125793
1.03909
0.973659
0.916609
0.873419
0.842798
0.806699
0.781558
0.766732
0.741591
0.72612
0.723864
0.705814
0.708392
0.703235
0.705169
0.719351
0.719029
0.732888
0.739335
0.750938
0.768343
0.772211
0.792839
0.798641
0.797352
0.806377
0.807666
0.810244
0.819269
0.816046
0.816368
0.825716
0.819269
0.821848
0.832162
0.82636
0.835063
0.83603
0.841832
0.851823
0.852146
0.854402
0.864716
0.859881
0.872129
0.87084
0.862782
0.866972
0.869551
0.859559
0.861815
0.855047
0.853435
0.858592
0.854724
0.856658
0.867295
0.866328
0.878576
0.886311
0.8847
0.894692
0.907262
0.902105
0.907584
0.907584
0.905328
0.907584
0.901783
0.901138
0.904683
0.898882
0.897592
0.903716
0.898882
0.899849
0.911774
0.909196
0.917576
0.926279
0.922088
0.933692
0.936915
0.930791
0.935626
0.942394
0.93208
0.932725
0.935303
0.922733
0.924345
0.917576
0.916287
0.922088
0.918865
0.922088
0.932403
0.933047
0.939816
0.952386
0.952709
0.957543
0.967535
0.96399
0.964634
0.973015
0.966568
0.966891
0.974304
0.967535
0.965601
0.971725
0.9627
0.965601
0.966568
0.95851
0.971403
0.971081
0.966891
0.975271
0.98623
0.983973
0.991387
1.003312
0.999767
1.00718
1.012982
1.005891
1.009759
1.005246
1.000734
1.002668
0.998155
0.9988
1.005891
1.008147
1.015883
1.028775
1.031676
1.040057
1.052627
1.053272
1.057784
1.06552
1.066487
1.066809
1.071321
1.081313
1.069065
1.072288
1.077768
1.067776
1.073578
1.080669
1.075511
1.08228
1.095817
1.095495
1.113223
1.124181
1.128694
1.14352
1.156413
1.156735
1.160926
1.169628
1.163826
1.161893
1.163826
1.154802
1.150289
1.151578
1.14481
1.142876
1.146744
1.153835
1.147066
1.15738
1.167372
1.163182
1.174785
1.178008
1.171884
1.173174
1.179942
1.170595
1.164793
1.162215
1.147388
1.136429
1.13095
1.118702
1.111611
1.109355
1.099041
1.095495
1.097429
1.100008
1.09195
1.094851
1.098718
1.086148
1.082925
1.079379
1.058106
1.047148
1.036511
1.011693
1.00299
0.988808
0.965924
0.955609
0.947874
0.928857
0.922733
0.920477
0.906295
0.903716
0.898559
0.891791
0.890824
0.881799
0.876319
0.875997
0.865038
0.857625
0.858592
0.844732
0.843121
0.838286
0.824104
0.821848
0.822493
0.807666
0.807988
0.79993
0.797029
0.802509
0.796063
0.805732
0.80412
0.796385
0.798963
0.795096
0.792839
0.796063
0.788327
0.78317
0.786715
0.775757
0.776079
0.771566
0.76512
0.76931
0.764798
0.766409
0.775757
0.771566
0.778013
0.788972
0.780591
0.786715
0.783492
0.783814
0.791872
0.784781
0.785426
0.789938
0.778335
0.781236
0.775112
0.7735
0.779624
0.773823
0.785426
0.784459
0.778335
0.787038
0.786071
0.789938
0.79993
0.797029
0.797674
0.807021
0.798641
0.800575
0.797352
0.792195
0.796385
0.790583
0.791872
0.79993
0.794451
0.798963
0.808633
0.803153
0.810889
0.810244
0.814112
0.825071
0.823459
0.828939
0.84022
0.834741
0.840865
0.839898
0.835063
0.83603
0.829583
0.825393
0.827005
0.818625
0.816046
0.822493
0.816691
0.821526
0.83184
0.826038
0.833774
0.832807
0.836352
0.844732
0.842154
0.842798
0.851823
0.84441
0.850534
0.852468
0.843121
0.846022
0.844732
0.843443
0.849567
0.845055
0.844732
0.853113
0.850212
0.852468
0.862782
0.858592
0.863427
0.873096
0.866972
0.872774
0.870195
0.868262
0.872774
0.86665
0.864394
0.870195
0.863749
0.862782
0.87084
0.864394
0.872129
0.874063
0.867939
0.874063
0.877609
0.878253
0.886634
0.8847
0.888245
0.895014
0.892113
0.891791
0.897915
0.889534
0.887923
0.893402
0.884055
0.892758
0.888568
0.880187
0.8847
0.885344
0.8847
0.891468
0.892435
0.894369
0.903072
0.898559
0.900493
0.907584
0.902427
0.914353
0.913064
0.905328
0.908551
0.913064
0.902105
0.903716
0.899204
0.895014
0.900493
0.896948
0.898559
0.906295
0.902749
0.904361
0.913708
0.911452
0.914031
0.9237
0.917576
0.928535
0.923378
0.914675
0.915642
0.919188
0.90694
0.907584
0.904361
0.90146
0.905973
0.902105
0.905328
0.914675
0.913708
0.918221
0.930791
0.930146
0.934014
0.943684
0.937882
0.935626
0.94175
0.930469
0.934981
0.929502
0.918865
0.917576
0.921766
0.911774
0.914031
0.921444
0.912419
0.920155
0.920155
0.925312
0.935303
0.935626
0.939816
0.949808
0.947874
0.948518
0.953998
0.944006
0.938204
0.939494
0.927568
0.920799
0.923055
0.912419
0.915642
0.918543
0.913386
0.926279
0.934014
0.933047
0.943361
0.954965
0.95013
0.956254
0.960767
0.951419
0.952709
0.949808
0.943039
0.943039
0.934337
0.933047
0.93627
0.931436
0.933047
0.941428
0.939816
0.942394
0.953998
0.951097
0.953998
0.963345
0.95851
0.960122
0.969147
0.96399
0.962378
0.969147
0.959477
0.961411
0.9627
0.953676
0.960444
0.9598
0.953998
0.963345
0.969147
0.964634
0.97237
0.985907
0.98623
0.998155
1.013627
1.013304
1.022651
1.031676
1.023941
1.026519
1.031676
1.02104
1.022007
1.023618
1.01137
1.011693
1.015883
1.00847
1.014916
1.022329
1.01685
1.022651
1.029098
1.02104
1.025875
1.028453
1.017817
1.018461
1.019751
1.005891
1.003957
1.001379
0.98623
0.982684
0.982039
0.967858
0.969147
0.968824
0.963345
0.966891
0.966891
0.9627
0.966568
0.962056
0.958188
0.959477
0.951419
0.945618
0.94594
0.934337
0.926923
0.925956
0.914353
0.907907
0.908551
0.898882
0.895336
0.902105
0.894047
0.905973
0.906295
0.902105
0.908873
0.920155
0.91532
0.921766
0.923378
0.922088
0.926601
0.922088
0.91951
0.921444
0.911452
0.906617
0.908229
0.898559
0.895658
0.900171
0.894047
0.895658
0.903394
0.898237
0.904683
0.908229
0.900171
0.905006
0.908229
0.895981
0.895658
0.884377
0.876642
0.87503
0.865361
0.862138
0.869551
0.867617
0.873419
0.891791
0.898882
0.924345
0.952709
0.97656
1.020395
1.077123
1.121925
1.187356
1.244406
1.295977
1.354638
1.422325
1.476152
1.535136
1.596055
1.65375
1.695006
1.739164
1.784933
1.823934
1.841661
1.858422
1.868414
1.862612
1.827157
1.78171
1.72756
1.657617
1.566401
1.476475
1.389126
1.285018
1.185744
1.093884
1.002023
0.934981
0.889534
0.843121
0.808633
0.787038
0.757062
0.748682
0.732888
0.713872
0.711293
0.701946
0.69969
0.705814
0.69969
0.705814
0.70807
0.713872
0.726764
0.728054
0.744492
0.75255
0.753839
0.768666
0.776079
0.788327
0.808311
0.814435
0.836674
0.845055
0.846022
0.857303
0.861493
0.862138
0.869228
0.866005
0.867617
0.874063
0.870195
0.87084
0.878253
0.871485
0.879865
0.877931
0.870195
0.874386
0.877931
0.877286
0.886311
0.887278
0.892113
0.901783
0.900816
0.903394
0.91113
0.905328
0.904683
0.910807
0.903072
0.900493
0.907584
0.898559
0.902749
0.905973
0.899204
0.90565
0.911452
0.908229
0.915964
0.914998
0.918221
0.926601
0.924989
0.92789
0.93627
0.932725
0.934014
0.941105
0.934659
0.934337
0.940783
0.93337
0.932725
0.939494
0.933047
0.941105
0.944328
0.940138
0.953031
0.957543
0.954965
0.961089
0.974304
0.970436
0.977527
0.983651
0.975593
0.981395
0.981395
0.977205
0.978816
0.985263
0.972048
0.974949
0.971081
0.966246
0.971725
0.968502
0.97237
0.981073
0.983329
0.989453
1.000089
1.001056
1.005246
1.012015
1.008147
1.007503
1.01137
1.004279
1.001701
1.006213
1.001056
1.004279
1.014916
1.017817
1.027164
1.042957
1.047148
1.055206
1.067131
1.066809
1.070677
1.076478
1.073255
1.070999
1.074222
1.066487
1.060685
1.058429
1.059718
1.04747
1.050371
1.052305
1.05166
1.06133
1.074545
1.075834
1.092272
1.10871
1.110966
1.124504
1.13933
1.138363
1.150611
1.154479
1.147388
1.145132
1.150611
1.141909
1.139008
1.144487
1.137719
1.138041
1.147388
1.146744
1.153512
1.163826
1.168339
1.171562
1.179942
1.189612
1.184455
1.193157
1.198314
1.191223
1.189612
1.192835
1.17962
1.173174
1.17543
1.163826
1.159636
1.161893
1.154157
1.15319
1.16157
1.163504
1.163826
1.171562
1.176397
1.166083
1.164149
1.164149
1.148355
1.144487
1.135463
1.116446
1.103553
1.098718
1.080024
1.067776
1.063908
1.046825
1.035866
1.031032
1.015883
1.005891
1.005569
0.991709
0.983651
0.983006
0.968502
0.9598
0.957866
0.941428
0.931113
0.92789
0.91113
0.906295
0.89727
0.878253
0.872129
0.867295
0.8486
0.846344
0.83603
0.831517
0.833451
0.82636
0.823782
0.829906
0.821848
0.821848
0.826683
0.815402
0.815402
0.807021
0.801864
0.803153
0.791872
0.791228
0.787682
0.77479
0.774145
0.768343
0.766732
0.772533
0.768988
0.771889
0.778657
0.771244
0.775112
0.771566
0.774467
0.781558
0.777368
0.776079
0.78317
0.7735
0.773823
0.770277
0.766732
0.771244
0.76512
0.764475
0.772533
0.76512
0.769633
0.770277
0.771889
0.781558
0.77898
0.780269
0.790261
0.783492
0.789616
0.788649
0.788005
0.794129
0.790261
0.790583
0.799286
0.793484
0.795096
0.803476
0.795096
0.800253
0.796385
0.797674
0.806054
0.801542
0.814112
0.813468
0.807666
0.813468
0.811211
0.811534
0.81798
0.812823
0.813145
0.820236
0.813145
0.81379
0.821848
0.815402
0.821203
0.819914
0.823137
0.832484
0.83055
0.832484
0.841832
0.83603
0.837319
0.844732
0.835708
0.839575
0.834418
0.833129
0.837964
0.829906
0.82765
0.835063
0.828617
0.833774
0.841832
0.83603
0.843765
0.844088
0.847956
0.859559
0.860204
0.864394
0.874708
0.870195
0.868584
0.87503
0.866005
0.864716
0.868906
0.856658
0.857303
0.849567
0.847633
0.852468
0.847311
0.850534
0.859559
0.85827
0.868262
0.874063
0.870518
0.875997
0.885344
0.87922
0.884377
0.884055
0.882443
0.886956
0.882121
0.880832
0.886956
0.881477
0.881799
0.890179
0.885989
0.892758
0.900171
0.896303
0.90146
0.911452
0.905328
0.910807
0.918865
0.908229
0.912097
0.905973
0.902427
0.904361
0.896948
0.893402
0.897915
0.892113
0.89308
0.902105
0.897592
0.905328
0.913708
0.910485
0.921122
0.928213
0.923378
0.931113
0.93756
0.92789
0.931436
0.928535
0.923378
0.923055
0.913708
0.908873
0.90984
0.900816
0.897915
0.902749
0.896948
0.897592
0.907262
0.901783
0.908229
0.913708
0.90984
0.916931
0.925634
0.91951
0.925634
0.928535
0.923378
0.925956
0.922088
0.917898
0.920799
0.913386
0.911452
0.914998
0.907907
0.907907
0.915642
0.911774
0.915642
0.926923
0.9237
0.926923
0.934337
0.927568
0.937237
0.934981
0.926601
0.926601
0.930469
0.919832
0.921122
0.922088
0.918543
0.925312
0.922088
0.924667
0.934014
0.934337
0.940461
0.952386
0.951419
0.954965
0.963023
0.956899
0.956899
0.9627
0.954965
0.951097
0.954965
0.945295
0.947874
0.94594
0.93756
0.946585
0.945295
0.938849
0.945295
0.956899
0.952709
0.962378
0.96818
0.971403
0.981717
0.981073
0.984296
0.992998
0.989453
0.992031
1.001056
0.997511
0.999445
1.006536
1.001701
1.004279
1.012015
1.007825
1.00847
1.018139
1.014271
1.016527
1.027486
1.024585
1.024908
1.02942
1.021362
1.015238
1.015883
1.003635
0.996544
0.997833
0.98623
0.979783
0.982362
0.971403
0.967535
0.973337
0.964957
0.964312
0.972048
0.965279
0.973337
0.974304
0.965601
0.973337
0.967535
0.953353
0.947874
0.944973
0.926923
0.923055
0.921122
0.90694
0.906617
0.899526
0.896625
0.902105
0.896625
0.898237
0.90565
0.90146
0.902749
0.91113
0.906295
0.91113
0.916931
0.910163
0.912097
0.916609
0.904361
0.902427
0.897592
0.888568
0.890501
0.88341
0.883088
0.889534
0.886311
0.888245
0.899204
0.896948
0.899204
0.91113
0.906617
0.914998
0.917254
0.907262
0.908229
0.905973
0.893402
0.891791
0.881477
0.877286
0.878576
0.87084
0.868906
0.875675
0.873419
0.881154
0.893725
0.898237
0.914675
0.941105
0.957543
0.993321
1.035866
1.071644
1.124826
1.178008
1.220232
1.282439
1.333043
1.381713
1.439086
1.504194
1.555765
1.610559
1.668576
1.724015
1.764627
1.806528
1.844562
1.870025
1.870347
1.86229
1.837471
1.797181
1.725949
1.649237
1.567691
1.481632
1.377523
1.280183
1.189934
1.089693
1.006536
0.95013
0.898237
0.860204
0.837641
0.803153
0.78317
0.769955
0.740302
0.727731
0.708715
0.6955
0.69421
0.679384
0.678739
0.673582
0.673582
0.686475
0.686475
0.700657
0.707425
0.720963
0.742558
0.75255
0.769633
0.793484
0.79993
0.81798
0.825393
0.836352
0.852468
0.853757
0.858914
0.868906
0.861493
0.864071
0.868906
0.859881
0.865038
0.863104
0.866972
0.876319
0.877931
0.883733
0.899204
0.900171
0.904683
0.915642
0.910807
0.917576
0.917254
0.90565
0.905973
0.901138
0.893402
0.895658
0.890824
0.890179
0.896948
0.894047
0.897592
0.907262
0.905973
0.910807
0.923055
0.921444
0.931113
0.93756
0.932725
0.938527
0.944328
0.935948
0.940783
0.944973
0.934337
0.936593
0.935948
0.93337
0.938849
0.934659
0.934337
0.942072
0.939171
0.942394
0.951419
0.951742
0.953998
0.963345
0.959155
0.958833
0.96399
0.954965
0.952064
0.956254
0.946907
0.952709
0.950452
0.942717
0.946907
0.958833
0.956576
0.967858
0.979783
0.976238
0.984618
0.993965
0.990742
0.997833
1.002023
1.000412
1.007825
1.007825
1.005891
1.009436
1.004279
1.001056
1.003635
0.997511
0.995899
1.001056
0.997511
1.000412
1.010081
1.01137
1.019428
1.034255
1.036189
1.04199
1.055528
1.056172
1.06133
1.073578
1.071321
1.072933
1.078412
1.071321
1.068743
1.072611
1.064875
1.063263
1.069065
1.063908
1.067131
1.078412
1.081313
1.089371
1.103875
1.10871
1.116768
1.129016
1.132239
1.133529
1.136752
1.140297
1.129339
1.133851
1.137396
1.129339
1.136429
1.140942
1.137074
1.146744
1.155124
1.155124
1.16157
1.175752
1.174785
1.178331
1.187678
1.183488
1.18381
1.188323
1.181876
1.176719
1.175108
1.17543
1.158025
1.158025
1.160603
1.151256
1.160281
1.168017
1.165116
1.169306
1.17962
1.173818
1.173174
1.178331
1.168661
1.163826
1.164149
1.151578
1.142876
1.138686
1.124181
1.11419
1.109677
1.102586
1.086148
1.078735
1.073255
1.053916
1.051015
1.048437
1.036511
1.035544
1.036833
1.024263
1.020395
1.019751
1.002345
0.992354
0.985907
0.964957
0.953676
0.944973
0.921444
0.911774
0.898882
0.887278
0.883088
0.873419
0.868262
0.870518
0.862138
0.858592
0.863104
0.853113
0.858592
0.852468
0.839575
0.837319
0.829906
0.820559
0.818625
0.806377
0.799608
0.801864
0.79155
0.789294
0.793806
0.783814
0.787682
0.783814
0.784137
0.792517
0.78736
0.794129
0.798641
0.791228
0.796385
0.790261
0.788327
0.79155
0.782525
0.787682
0.779302
0.767699
0.768021
0.761897
0.761252
0.768021
0.76512
0.7735
0.783814
0.781236
0.790905
0.791228
0.794129
0.802831
0.797674
0.807344
0.803476
0.793162
0.795418
0.788972
0.785748
0.790583
0.782203
0.788327
0.789294
0.782203
0.788327
0.786071
0.790905
0.801864
0.801542
0.805732
0.817658
0.813145
0.818947
0.820236
0.818625
0.823459
0.818625
0.816046
0.821203
0.813468
0.82217
0.821848
0.815724
0.822493
0.82217
0.825393
0.836674
0.834418
0.836997
0.846344
0.840865
0.842476
0.850534
0.842798
0.847311
0.841832
0.841187
0.845699
0.839253
0.837964
0.845055
0.838931
0.843443
0.849567
0.843443
0.850212
0.849245
0.85279
0.86246
0.861171
0.864394
0.874386
0.870195
0.880187
0.87922
0.871485
0.875675
0.881799
0.87084
0.875675
0.871485
0.872774
0.880187
0.876319
0.877931
0.887923
0.881477
0.892758
0.892758
0.885667
0.88889
0.888568
0.885344
0.889212
0.881477
0.879865
0.881477
0.873741
0.87084
0.877286
0.87084
0.876964
0.885022
0.87922
0.887923
0.889212
0.892113
0.900171
0.899204
0.900171
0.908551
0.902749
0.901783
0.908873
0.899526
0.907907
0.903072
0.89308
0.895336
0.893402
0.890824
0.895658
0.891468
0.892435
0.902749
0.900493
0.910163
0.917576
0.914675
0.919832
0.930146
0.9237
0.929179
0.929824
0.926923
0.929179
0.921122
0.916287
0.917254
0.908873
0.907262
0.912741
0.907584
0.909196
0.917576
0.913386
0.92789
0.929502
0.924989
0.933047
0.940138
0.932403
0.935948
0.93337
0.928857
0.929179
0.91951
0.915964
0.917898
0.908873
0.907907
0.913708
0.908873
0.915642
0.91951
0.914675
0.919832
0.931436
0.926923
0.933692
0.934981
0.933047
0.935626
0.930146
0.929179
0.931436
0.924022
0.920155
0.924022
0.916287
0.913386
0.921122
0.914353
0.925634
0.928213
0.924345
0.933047
0.947552
0.946585
0.956899
0.967858
0.965601
0.971403
0.967213
0.964957
0.965924
0.957221
0.953676
0.955609
0.947552
0.944651
0.949163
0.942394
0.943684
0.954643
0.954965
0.960444
0.97656
0.979461
0.991064
1.003312
1.002023
1.017172
1.018139
1.012015
1.019751
1.018139
1.007503
1.004279
1.008792
0.999445
1.002345
1.009759
1.002668
1.011693
1.020073
1.016205
1.023296
1.031354
1.024263
1.027486
1.026842
1.019106
1.01685
1.01685
1.000089
0.997188
0.988164
0.979139
0.978816
0.968502
0.963023
0.964634
0.956254
0.952064
0.954965
0.946262
0.94175
0.943684
0.933692
0.929824
0.934014
0.924345
0.921444
0.925634
0.914675
0.914675
0.914031
0.90146
0.90146
0.899849
0.894047
0.898559
0.894369
0.896948
0.904683
0.902105
0.905973
0.914675
0.910485
0.91113
0.920477
0.913708
0.916609
0.918543
0.905328
0.905328
0.902749
0.892758
0.894369
0.888245
0.88889
0.895658
0.892758
0.895658
0.906295
0.904361
0.908551
0.913708
0.904039
0.903394
0.906617
0.895014
0.893402
0.884055
0.877286
0.876964
0.868262
0.866972
0.875353
0.872452
0.878898
0.895658
0.900171
0.920155
0.95013
0.972048
1.01556
1.069065
1.115479
1.178331
1.241505
1.289853
1.353994
1.409755
1.458103
1.512574
1.572848
1.628931
1.669543
1.714668
1.764305
1.796214
1.829735
1.867447
1.884852
1.885174
1.877761
1.856488
1.814909
1.747222
1.676312
1.597666
1.513541
1.40911
1.308547
1.212819
1.105809
1.014271
0.950452
0.89308
0.851501
0.823782
0.788649
0.773178
0.753517
0.729988
0.723864
0.710649
0.704525
0.709037
0.700012
0.704847
0.702913
0.707748
0.719996
0.720963
0.734822
0.742558
0.750294
0.767054
0.772856
0.78317
0.801864
0.803476
0.816046
0.824104
0.829906
0.844088
0.846666
0.85279
0.864716
0.861493
0.873741
0.872129
0.862782
0.864394
0.85827
0.855691
0.859559
0.851823
0.850856
0.859559
0.853435
0.858592
0.868262
0.863749
0.872452
0.873419
0.878898
0.888568
0.886956
0.889857
0.898559
0.894369
0.898237
0.901138
0.893402
0.893402
0.899849
0.889534
0.89308
0.889212
0.889212
0.895981
0.89308
0.895658
0.906295
0.903716
0.906617
0.917898
0.914031
0.926601
0.926601
0.918221
0.91951
0.924022
0.913708
0.915642
0.914353
0.912419
0.918221
0.916609
0.921766
0.93208
0.933047
0.938204
0.95013
0.949163
0.952709
0.96399
0.9598
0.960122
0.967213
0.958833
0.964312
0.962378
0.953031
0.954643
0.958833
0.95013
0.95432
0.961089
0.956254
0.965601
0.972692
0.979461
0.992354
0.997833
1.002668
1.013304
1.011048
1.012337
1.01685
1.011048
1.007503
1.009114
1.000412
0.996544
0.998155
0.990742
0.99042
0.995899
0.993321
0.996221
1.007503
1.00718
1.012982
1.026842
1.027809
1.03361
1.046503
1.044569
1.049404
1.057784
1.052627
1.051015
1.055528
1.048115
1.045858
1.052627
1.048437
1.052949
1.065842
1.068098
1.075511
1.09066
1.089693
1.094851
1.104842
1.103553
1.107099
1.11838
1.118057
1.123859
1.131595
1.127405
1.126115
1.129339
1.123859
1.120636
1.123537
1.124826
1.122248
1.131272
1.142876
1.139008
1.149645
1.160281
1.158025
1.166727
1.172529
1.164793
1.168017
1.170917
1.162537
1.159636
1.164793
1.155124
1.151901
1.156091
1.146421
1.143198
1.146099
1.138041
1.136107
1.139975
1.133529
1.133206
1.137719
1.134496
1.129983
1.130628
1.133851
1.115479
1.10871
1.101297
1.076478
1.067131
1.057139
1.035222
1.02942
1.024585
1.007503
1.004602
1.001379
0.986874
0.983973
0.983329
0.969469
0.966246
0.954643
0.944651
0.940138
0.924345
0.913064
0.90565
0.887278
0.87503
0.870518
0.854402
0.855369
0.847633
0.834418
0.835385
0.831195
0.83055
0.837319
0.832162
0.83184
0.837319
0.827972
0.831195
0.829583
0.815724
0.814435
0.80412
0.798319
0.798319
0.788005
0.792517
0.788005
0.777368
0.780591
0.776079
0.775757
0.782848
0.777368
0.789294
0.786715
0.77898
0.783814
0.780269
0.780591
0.787682
0.781236
0.788972
0.788005
0.77769
0.780914
0.776401
0.775757
0.78317
0.776723
0.779302
0.788327
0.783492
0.79155
0.790583
0.793162
0.803798
0.798641
0.802187
0.810567
0.801542
0.806054
0.799286
0.796385
0.800575
0.791872
0.793806
0.796063
0.787038
0.79155
0.789294
0.792195
0.804443
0.80412
0.815724
0.821848
0.816368
0.822815
0.819914
0.820559
0.829583
0.825071
0.826683
0.836352
0.828939
0.833451
0.830873
0.830228
0.836352
0.830228
0.834418
0.840865
0.835063
0.841832
0.845699
0.845699
0.854402
0.851823
0.853113
0.860848
0.855047
0.860848
0.861815
0.851823
0.854402
0.852146
0.848278
0.85408
0.849889
0.851501
0.861815
0.85827
0.867617
0.872452
0.868584
0.873741
0.882121
0.875353
0.880187
0.876964
0.876964
0.88341
0.876319
0.874386
0.878898
0.869551
0.877931
0.873096
0.863749
0.867617
0.868906
0.868584
0.876964
0.875675
0.87922
0.887601
0.884055
0.885989
0.895658
0.889212
0.898559
0.896948
0.888245
0.889534
0.8847
0.878898
0.882121
0.87503
0.875675
0.88341
0.881477
0.885344
0.898237
0.896625
0.913064
0.916609
0.913064
0.920799
0.924989
0.917576
0.919832
0.914031
0.91113
0.914353
0.90694
0.905973
0.910485
0.903072
0.900816
0.907584
0.901783
0.91532
0.915964
0.912741
0.922088
0.93208
0.925312
0.932403
0.928535
0.925956
0.928535
0.919832
0.915964
0.917576
0.908229
0.905006
0.911452
0.905973
0.912419
0.91951
0.917576
0.923378
0.935626
0.931758
0.93756
0.943361
0.938204
0.944006
0.939494
0.93756
0.941105
0.932403
0.928213
0.932403
0.924022
0.922088
0.928213
0.921766
0.923055
0.929179
0.923378
0.929824
0.936915
0.931758
0.939494
0.946585
0.939816
0.944973
0.943684
0.940461
0.944006
0.937237
0.935948
0.941428
0.935303
0.934981
0.942072
0.936915
0.938204
0.948518
0.94594
0.957221
0.965924
0.965924
0.98623
0.990742
0.990742
1.001379
1.013304
1.010726
1.017172
1.026519
1.019106
1.020395
1.023296
1.009436
1.009436
1.010726
0.998155
1.000734
1.005246
0.997833
1.001056
1.003957
1.001379
1.008147
1.007503
1.004279
1.008792
1.002345
1.000734
1.001701
0.993643
0.987841
0.98623
0.974304
0.968502
0.968824
0.959477
0.956576
0.9598
0.953998
0.951419
0.954643
0.944651
0.939816
0.941428
0.928857
0.934981
0.926601
0.914998
0.914675
0.916609
0.903072
0.902749
0.894047
0.890179
0.891146
0.883088
0.882443
0.889534
0.885667
0.887923
0.898237
0.893725
0.900171
0.90565
0.898559
0.901783
0.900816
0.896303
0.898559
0.892758
0.889212
0.892113
0.884377
0.882121
0.887923
0.880187
0.890501
0.890179
0.884055
0.891146
0.900171
0.892758
0.898559
0.893725
0.892758
0.895658
0.885667
0.881154
0.883733
0.871162
0.876642
0.87084
0.860848
0.866972
0.870518
0.877286
0.894692
0.907584
0.929179
0.96399
0.995254
1.04199
1.103231
1.153835
1.211207
1.276315
1.329498
1.391383
1.459392
1.52031
1.581228
1.655039
1.711445
1.758825
1.809429
1.859711
1.908059
1.938034
1.969622
1.99863
1.996374
1.974134
1.939646
1.885819
1.824578
1.735941
1.643113
1.551575
1.442309
1.32563
1.215075
1.115479
1.013949
0.942394
0.895658
0.846989
0.811856
0.793162
0.763186
0.74836
0.732566
0.722252
0.721607
0.711293
0.714194
0.716773
0.710326
0.719029
0.718062
0.722897
0.736756
0.736112
0.749004
0.75255
0.759963
0.775112
0.776723
0.785426
0.800575
0.801864
0.815402
0.819914
0.82765
0.840865
0.838931
0.8486
0.850534
0.842154
0.84441
0.842476
0.839253
0.844732
0.839253
0.838931
0.846022
0.840865
0.854724
0.85408
0.850534
0.857303
0.861815
0.864071
0.87503
0.874386
0.877286
0.887601
0.884377
0.885344
0.894047
0.885989
0.885667
0.891146
0.881799
0.8847
0.881477
0.88341
0.891146
0.888245
0.890824
0.900171
0.895658
0.897592
0.908229
0.904361
0.914998
0.921122
0.915964
0.922411
0.928535
0.918865
0.920477
0.91532
0.914031
0.918221
0.912741
0.912097
0.919188
0.913708
0.916287
0.928213
0.926279
0.944006
0.946907
0.944328
0.949163
0.958188
0.951097
0.955609
0.958188
0.953353
0.958188
0.953998
0.95432
0.9598
0.957543
0.960122
0.96818
0.964634
0.967858
0.978494
0.978816
0.986552
1.001056
1.001701
1.007825
1.018461
1.012337
1.011693
1.01556
1.004279
0.999767
1.002668
0.992676
0.994932
0.998155
0.993321
1.006536
1.00847
1.006536
1.023618
1.031032
1.032321
1.04747
1.057462
1.05585
1.066164
1.0739
1.069065
1.078735
1.081313
1.074545
1.085826
1.082925
1.074545
1.085826
1.084859
1.079379
1.090338
1.097429
1.098074
1.11419
1.127082
1.131595
1.139975
1.154802
1.15319
1.154802
1.162215
1.153835
1.148033
1.149322
1.136429
1.128694
1.129339
1.120314
1.119669
1.126438
1.125793
1.131595
1.146099
1.154157
1.16286
1.173818
1.186066
1.183488
1.191546
1.198637
1.189934
1.198637
1.192513
1.181554
1.174785
1.176719
1.164149
1.159636
1.166083
1.159636
1.159636
1.16705
1.161893
1.160926
1.166083
1.158992
1.155446
1.154802
1.143843
1.132884
1.126438
1.115479
1.097107
1.087115
1.0739
1.059073
1.050693
1.038445
1.022974
1.014271
1.011693
0.992031
0.988808
0.98075
0.971725
0.970758
0.959477
0.951419
0.947229
0.931758
0.922411
0.916609
0.901138
0.890824
0.88889
0.872774
0.870195
0.863104
0.847633
0.846022
0.839898
0.835063
0.837964
0.83055
0.827327
0.832162
0.822493
0.827327
0.824426
0.811856
0.811211
0.801542
0.795418
0.79574
0.784137
0.785426
0.78317
0.772211
0.775434
0.770922
0.771566
0.778013
0.773178
0.781881
0.782203
0.774145
0.780269
0.776723
0.77898
0.788005
0.782203
0.782525
0.788972
0.778013
0.779624
0.771566
0.768988
0.775757
0.769633
0.775757
0.775112
0.775112
0.78317
0.780914
0.783814
0.794129
0.788649
0.794129
0.793162
0.79155
0.797352
0.791872
0.790905
0.797674
0.788972
0.79155
0.789294
0.788005
0.79574
0.792195
0.794451
0.805087
0.79993
0.807344
0.809278
0.8096
0.817013
0.815079
0.817013
0.827327
0.821526
0.822493
0.829906
0.819914
0.822815
0.816046
0.814757
0.820881
0.816368
0.828939
0.828939
0.824426
0.832807
0.832484
0.837319
0.846989
0.846022
0.8486
0.85827
0.852468
0.854402
0.862138
0.851501
0.854402
0.847956
0.843765
0.8486
0.841509
0.84022
0.848923
0.843121
0.849889
0.856336
0.855047
0.863104
0.862782
0.865361
0.875675
0.872129
0.873741
0.883088
0.876642
0.878253
0.884377
0.874708
0.877286
0.87084
0.867939
0.871485
0.865038
0.863427
0.870195
0.865361
0.877286
0.877609
0.873096
0.881154
0.8847
0.88341
0.889212
0.8847
0.884377
0.888568
0.880187
0.878253
0.88341
0.876319
0.8847
0.885989
0.879865
0.885667
0.888245
0.889857
0.898237
0.896948
0.899526
0.909518
0.905973
0.90694
0.914353
0.906617
0.916609
0.910807
0.900816
0.903072
0.904361
0.895658
0.897915
0.891791
0.890824
0.897592
0.894369
0.897915
0.90984
0.907584
0.922088
0.926601
0.9237
0.929179
0.936915
0.928857
0.929824
0.925634
0.920155
0.919188
0.910163
0.90694
0.910485
0.904361
0.905006
0.914998
0.91113
0.924667
0.926279
0.922733
0.929179
0.937882
0.931436
0.938204
0.938204
0.939816
0.945618
0.940783
0.939494
0.942072
0.934981
0.93208
0.936593
0.928857
0.926279
0.934014
0.928213
0.935303
0.940783
0.935948
0.944006
0.954965
0.94594
0.951419
0.948841
0.949163
0.953998
0.948196
0.947874
0.953031
0.947552
0.948196
0.955287
0.951742
0.953353
0.966246
0.965601
0.982684
0.989453
0.989775
1.004279
1.014271
1.013627
1.02104
1.032966
1.028775
1.033288
1.038123
1.026519
1.026519
1.024585
1.009436
1.008147
1.008147
0.997511
1.000412
0.998478
0.997833
1.003312
1.001701
1.00299
1.009759
1.007503
1.00847
1.013627
1.005246
0.999767
0.998478
0.983973
0.974626
0.972048
0.957543
0.949485
0.948196
0.934981
0.928857
0.93337
0.922088
0.925956
0.926923
0.918221
0.922088
0.92789
0.919188
0.923378
0.918221
0.915964
0.918865
0.910485
0.905973
0.906617
0.895014
0.890179
0.894369
0.885344
0.886956
0.895014
0.888245
0.895981
0.895014
0.898882
0.907584
0.905328
0.906295
0.913708
0.90694
0.904683
0.910807
0.900816
0.90565
0.903072
0.890824
0.891468
0.888568
0.8847
0.889857
0.885667
0.886311
0.894047
0.888568
0.886634
0.892435
0.881799
0.88051
0.882121
0.870195
0.870518
0.865361
0.865038
0.873096
0.873096
0.880187
0.898559
0.909196
0.935948
0.972692
1.00847
1.073578
1.131595
1.187678
1.252786
1.32982
1.393639
1.464549
1.540938
1.604757
1.664064
1.725304
1.778809
1.819421
1.863579
1.914827
1.949316
1.970589
1.987994
1.991539
1.987027
1.962208
1.902902
1.840372
1.77333
1.690172
1.592187
1.499037
1.396217
1.284051
1.179942
1.085826
0.992354
0.92789
0.884055
0.836674
0.807344
0.780914
0.749649
0.735467
0.718706
0.711293
0.713872
0.706136
0.710326
0.71226
0.713872
0.726442
0.728376
0.74836
0.753839
0.754161
0.765765
0.768343
0.774467
0.788005
0.787038
0.795096
0.807344
0.804443
0.814112
0.817013
0.823459
0.83603
0.834741
0.84441
0.851823
0.847311
0.853757
0.854402
0.849245
0.85279
0.845699
0.844088
0.848278
0.841187
0.841187
0.849567
0.844732
0.851501
0.856658
0.856336
0.86665
0.868584
0.874386
0.885989
0.885022
0.888568
0.898882
0.893402
0.901783
0.900171
0.889212
0.890824
0.894369
0.884055
0.888245
0.8847
0.885344
0.893402
0.890501
0.895658
0.905973
0.905973
0.910163
0.924022
0.921444
0.934337
0.93627
0.930469
0.936593
0.940461
0.930791
0.934014
0.931758
0.930469
0.935303
0.933047
0.934981
0.942717
0.938204
0.939816
0.948196
0.944651
0.946907
0.956899
0.953676
0.9598
0.966891
0.962378
0.974949
0.972048
0.963023
0.963023
0.967213
0.956254
0.958188
0.957866
0.954643
0.960767
0.961411
0.966568
0.979139
0.981073
0.988808
1.001379
1.003957
1.009114
1.020718
1.016205
1.014916
1.018784
1.006536
1.001379
1.003957
0.992998
0.990097
0.997511
0.992354
0.995899
1.009436
1.010726
1.023296
1.037156
1.0378
1.049726
1.058429
1.057784
1.062941
1.076478
1.073255
1.075189
1.084214
1.077445
1.07809
1.087437
1.083892
1.087115
1.099685
1.098074
1.101619
1.1129
1.112256
1.116768
1.13095
1.132562
1.138686
1.149967
1.147388
1.148678
1.15319
1.147066
1.143843
1.144487
1.148678
1.135463
1.14062
1.146744
1.140297
1.146421
1.15738
1.154479
1.168984
1.173818
1.173174
1.17962
1.190579
1.188
1.188967
1.196058
1.189612
1.188323
1.190901
1.181232
1.174141
1.170273
1.167694
1.148678
1.145777
1.143843
1.129661
1.127727
1.131917
1.122248
1.131917
1.125471
1.114512
1.113223
1.108388
1.090016
1.079057
1.074867
1.056172
1.044569
1.038445
1.019428
1.004924
0.998155
0.978172
0.964634
0.960122
0.942717
0.940783
0.93208
0.919832
0.915642
0.916609
0.902749
0.897915
0.888568
0.875997
0.871807
0.857625
0.848923
0.846666
0.832162
0.825071
0.824749
0.810889
0.810244
0.806054
0.801542
0.806699
0.801542
0.800575
0.808955
0.80122
0.801542
0.801864
0.792517
0.793484
0.78317
0.777368
0.778657
0.767054
0.764153
0.768666
0.754806
0.757062
0.749971
0.749004
0.757062
0.750938
0.756418
0.758029
0.762219
0.772533
0.770922
0.780914
0.783492
0.775434
0.77769
0.771244
0.767054
0.76931
0.759318
0.765765
0.764475
0.756095
0.762864
0.760608
0.763831
0.774467
0.771566
0.779624
0.787038
0.783492
0.79155
0.788327
0.788972
0.797029
0.790261
0.792839
0.798319
0.786715
0.791872
0.786715
0.78736
0.796385
0.792517
0.797352
0.807021
0.797352
0.806054
0.802831
0.804443
0.813468
0.807988
0.810567
0.818302
0.809278
0.812823
0.806377
0.805087
0.809922
0.803476
0.815724
0.813468
0.807988
0.817335
0.81798
0.824104
0.83603
0.83603
0.839898
0.850534
0.845699
0.850534
0.851823
0.849245
0.853435
0.847956
0.844088
0.847956
0.84022
0.836997
0.843121
0.835063
0.838608
0.836352
0.834418
0.841509
0.838286
0.842154
0.852146
0.850856
0.864071
0.867617
0.864394
0.871485
0.872774
0.87084
0.876319
0.869873
0.867617
0.872452
0.866005
0.866005
0.874386
0.867939
0.871162
0.878253
0.872129
0.88051
0.879865
0.883733
0.893402
0.890501
0.891468
0.898559
0.890501
0.893402
0.894692
0.885344
0.887923
0.892758
0.882121
0.885344
0.880187
0.880187
0.888245
0.885344
0.895981
0.900171
0.895336
0.900171
0.905328
0.897592
0.903716
0.900171
0.903394
0.912419
0.907262
0.905006
0.907907
0.898237
0.89308
0.896303
0.886311
0.886956
0.893402
0.885989
0.892435
0.891146
0.894692
0.904039
0.90146
0.904361
0.913386
0.909518
0.90984
0.917576
0.907907
0.911774
0.910163
0.898882
0.899204
0.895981
0.892113
0.89727
0.891791
0.893725
0.902427
0.902105
0.907262
0.920799
0.91951
0.931113
0.934659
0.929179
0.929824
0.934337
0.921444
0.921766
0.91532
0.908873
0.910163
0.903716
0.903394
0.90984
0.905006
0.907584
0.918865
0.917576
0.930791
0.934659
0.930146
0.934337
0.942072
0.934014
0.936593
0.936593
0.93208
0.93627
0.930469
0.929824
0.934981
0.929502
0.929502
0.93627
0.929824
0.93208
0.942072
0.939171
0.955932
0.959477
0.957543
0.963023
0.971725
0.961411
0.961089
0.963667
0.947552
0.948518
0.941428
0.938527
0.943684
0.939494
0.942072
0.952709
0.953676
0.960767
0.975271
0.978172
0.987197
1.003957
1.006536
1.013627
1.027486
1.024908
1.030709
1.034577
1.023941
1.026842
1.023941
1.014271
1.023618
1.019106
1.009436
1.009114
1.015883
1.008147
1.014594
1.022974
1.01685
1.022974
1.027809
1.017817
1.018784
1.024263
1.008792
1.007503
1.001701
0.992676
0.98913
0.977527
0.968502
0.965279
0.953676
0.947229
0.948841
0.939494
0.935303
0.940138
0.93337
0.931758
0.940138
0.93208
0.940138
0.93756
0.926279
0.926923
0.920799
0.912097
0.910485
0.902105
0.898237
0.902105
0.895658
0.895336
0.902749
0.89727
0.898237
0.907262
0.903072
0.906295
0.915964
0.908551
0.910807
0.907907
0.903394
0.906617
0.898237
0.895336
0.900171
0.892435
0.891468
0.898237
0.889534
0.895658
0.897915
0.889534
0.894692
0.892113
0.889534
0.894047
0.889212
0.888245
0.891468
0.880187
0.874386
0.876319
0.864394
0.865361
0.872129
0.86665
0.877286
0.882121
0.896303
0.922088
0.944973
0.980428
1.03361
1.084214
1.14481
1.216042
1.273737
1.337878
1.408466
1.47164
1.530302
1.601212
1.650526
1.692428
1.736908
1.782677
1.822322
1.845207
1.870347
1.892587
1.901935
1.885496
1.861
1.823934
1.769462
1.691138
1.610237
1.528045
1.431028
1.328208
1.229257
1.129339
1.025875
0.953676
0.905006
0.851501
0.81798
0.782203
0.756418
0.741913
0.719029
0.707748
0.705814
0.691632
0.693243
0.687442
0.69969
0.702268
0.699367
0.710649
0.714194
0.727409
0.742236
0.744814
0.759963
0.765442
0.774145
0.790583
0.791228
0.802187
0.807344
0.816046
0.830228
0.834418
0.841832
0.856658
0.856013
0.86246
0.873096
0.867295
0.874708
0.871485
0.874386
0.880832
0.876642
0.877931
0.886956
0.881477
0.892758
0.889857
0.883088
0.887278
0.889534
0.88889
0.896625
0.895658
0.899849
0.910485
0.909196
0.911452
0.91951
0.912741
0.916287
0.918221
0.90984
0.910807
0.916287
0.906295
0.911452
0.913386
0.915642
0.927568
0.929179
0.935948
0.946262
0.944006
0.946262
0.953676
0.948518
0.948196
0.953676
0.944328
0.947229
0.944973
0.935303
0.939816
0.940461
0.930146
0.933692
0.935303
0.931436
0.939171
0.939494
0.944651
0.955609
0.955932
0.961734
0.972692
0.972048
0.974304
0.981395
0.974626
0.971403
0.974626
0.964312
0.961411
0.967213
0.960122
0.965279
0.970758
0.966246
0.98075
0.985263
0.982684
0.990742
1.004279
1.001056
1.010726
1.018461
1.011693
1.016527
1.018784
1.013949
1.016527
1.020073
1.013304
1.018139
1.017172
1.015883
1.024585
1.024263
1.031676
1.045858
1.053594
1.067454
1.087115
1.097107
1.106132
1.116768
1.11709
1.112256
1.112256
1.113223
1.096462
1.093239
1.095173
1.083569
1.089371
1.097429
1.093239
1.103231
1.115479
1.113545
1.12257
1.136752
1.134818
1.147388
1.156091
1.154802
1.168017
1.172207
1.166083
1.164149
1.170273
1.16157
1.159636
1.164793
1.157702
1.158025
1.16705
1.166083
1.173818
1.190901
1.192835
1.198314
1.206695
1.206695
1.204761
1.207339
1.211207
1.198637
1.196058
1.195736
1.180587
1.183488
1.172529
1.158025
1.151256
1.153512
1.142231
1.13933
1.144165
1.136107
1.134173
1.139653
1.13095
1.128049
1.131272
1.11838
1.109999
1.107743
1.090983
1.080346
1.074867
1.058106
1.044247
1.0378
1.020395
1.008792
1.004279
0.989453
0.981395
0.981395
0.96818
0.960767
0.961089
0.946907
0.943684
0.939816
0.923378
0.916931
0.911774
0.893402
0.885989
0.877609
0.865361
0.862138
0.849889
0.842154
0.842154
0.829583
0.83603
0.828939
0.81798
0.819269
0.813145
0.810567
0.814112
0.805087
0.806054
0.806377
0.794451
0.793162
0.784459
0.77898
0.782203
0.772533
0.779947
0.775757
0.766732
0.769633
0.76512
0.766409
0.77479
0.769955
0.775757
0.781236
0.776723
0.785104
0.781558
0.782203
0.790583
0.781558
0.784459
0.77769
0.77479
0.777046
0.768988
0.771889
0.772856
0.763831
0.768343
0.765442
0.768343
0.779624
0.779302
0.791872
0.798319
0.792839
0.799286
0.795418
0.794129
0.802187
0.792839
0.794773
0.792195
0.792517
0.79993
0.79574
0.800897
0.808311
0.802831
0.8096
0.808633
0.812178
0.820881
0.819592
0.82217
0.833774
0.829261
0.835063
0.832807
0.829583
0.833129
0.82636
0.824749
0.83055
0.821848
0.82217
0.827327
0.817658
0.823459
0.820881
0.823459
0.834418
0.833774
0.843121
0.850534
0.844732
0.850212
0.851501
0.849889
0.856013
0.849889
0.848278
0.85408
0.845055
0.854402
0.850856
0.842476
0.847311
0.845055
0.849889
0.861493
0.86246
0.868262
0.88051
0.878576
0.892758
0.891791
0.8847
0.887923
0.884377
0.879865
0.882121
0.874708
0.870195
0.873741
0.865361
0.865361
0.87503
0.870195
0.876964
0.885667
0.880832
0.88889
0.887278
0.890501
0.898882
0.895014
0.895014
0.90146
0.892113
0.899526
0.89308
0.882121
0.885344
0.884055
0.883088
0.890501
0.888568
0.892758
0.903394
0.902105
0.904361
0.914353
0.90984
0.91951
0.920799
0.912741
0.914675
0.914675
0.90565
0.90694
0.899849
0.898559
0.902749
0.897592
0.897915
0.907584
0.902427
0.913708
0.913386
0.907584
0.914998
0.917254
0.916287
0.924022
0.921444
0.923055
0.928535
0.923055
0.921766
0.926601
0.918221
0.914353
0.91951
0.910485
0.918543
0.917254
0.909518
0.915964
0.918543
0.918221
0.926601
0.926279
0.93208
0.941428
0.938204
0.93756
0.941428
0.93208
0.925634
0.928535
0.916931
0.922733
0.917576
0.90694
0.909518
0.908229
0.905973
0.914353
0.914031
0.918865
0.929502
0.929824
0.934337
0.944973
0.942717
0.944006
0.952386
0.944973
0.952709
0.946907
0.934659
0.934981
0.936593
0.925312
0.929824
0.926601
0.929824
0.938849
0.93627
0.940138
0.949808
0.946262
0.947552
0.954965
0.948196
0.947229
0.953353
0.944973
0.953353
0.949808
0.939494
0.942717
0.941105
0.935626
0.940783
0.938204
0.940783
0.952064
0.951419
0.957221
0.96818
0.966568
0.969791
0.979139
0.974626
0.973982
0.979783
0.970436
0.978494
0.973337
0.963023
0.965924
0.973659
0.966568
0.973337
0.978816
0.979139
0.99042
0.993643
1.001379
1.01556
1.019751
1.02942
1.042313
1.042313
1.045214
1.05166
1.042957
1.039734
1.040057
1.026842
1.018784
1.017494
1.005891
1.001056
1.005891
0.9988
0.999767
1.009759
1.006213
1.00847
1.019106
1.013627
1.017817
1.020718
1.010726
1.018139
1.007825
0.992031
0.984296
0.980428
0.961411
0.955609
0.953676
0.936593
0.936593
0.928857
0.925312
0.930146
0.924345
0.924345
0.930791
0.924022
0.933692
0.928857
0.916609
0.916931
0.911452
0.904039
0.905328
0.895981
0.893725
0.899526
0.89308
0.893402
0.901138
0.894692
0.896303
0.904683
0.897592
0.904361
0.902749
0.90565
0.913386
0.908229
0.908551
0.91532
0.909518
0.907907
0.914998
0.905006
0.903394
0.90694
0.895014
0.895981
0.888245
0.885667
0.887601
0.879543
0.876964
0.882121
0.874386
0.880832
0.88051
0.873419
0.879543
0.882121
0.884377
0.895981
0.900493
0.912741
0.93756
0.954965
0.984618
1.030387
1.070677
1.121925
1.187033
1.24086
1.305969
1.380424
1.444565
1.51483
1.586707
1.652783
1.701453
1.754635
1.807495
1.852298
1.87486
1.895166
1.908703
1.90548
1.870992
1.829091
1.778164
1.715635
1.626675
1.548029
1.462937
1.365597
1.274381
1.189934
1.09614
1.015238
0.957543
0.903072
0.863104
0.835385
0.79993
0.780269
0.759963
0.731277
0.720318
0.702268
0.692599
0.694855
0.685185
0.689698
0.688409
0.695822
0.714839
0.719029
0.735467
0.743203
0.756095
0.772533
0.776401
0.78736
0.803798
0.80122
0.814435
0.815724
0.82217
0.834418
0.833774
0.841509
0.852146
0.849567
0.85827
0.858914
0.863749
0.873741
0.871807
0.874063
0.88341
0.876642
0.88341
0.88341
0.872774
0.874708
0.869551
0.868262
0.873419
0.869873
0.871162
0.882443
0.88051
0.896303
0.899526
0.89727
0.906617
0.917576
0.910485
0.917576
0.914031
0.913386
0.917576
0.90984
0.906295
0.91113
0.901783
0.904361
0.907584
0.900171
0.904683
0.913708
0.908873
0.918221
0.920155
0.926923
0.939171
0.939816
0.945618
0.955609
0.953031
0.954965
0.961411
0.953353
0.95013
0.953676
0.943039
0.948841
0.945618
0.936593
0.942394
0.947552
0.944328
0.952709
0.951742
0.954643
0.964634
0.963667
0.96818
0.977849
0.974304
0.975915
0.980428
0.973337
0.971081
0.976238
0.967535
0.966246
0.975593
0.971725
0.984618
0.989453
0.988808
0.999767
1.007503
1.005891
1.014271
1.027809
1.023296
1.030709
1.037478
1.028775
1.032321
1.032321
1.02523
1.026842
1.028453
1.019428
1.022974
1.023296
1.02523
1.035866
1.0378
1.043924
1.054883
1.057784
1.064875
1.07809
1.081958
1.088727
1.100652
1.100975
1.103875
1.109999
1.106454
1.101297
1.102908
1.097429
1.092917
1.094528
1.098074
1.095173
1.104842
1.121603
1.12257
1.137074
1.154802
1.156413
1.168339
1.181232
1.177364
1.185422
1.186389
1.175108
1.174141
1.17124
1.160281
1.157058
1.163504
1.156735
1.155769
1.163826
1.159636
1.162215
1.174463
1.175108
1.181232
1.194447
1.193157
1.194447
1.201538
1.193802
1.189612
1.190579
1.176397
1.167694
1.163504
1.149967
1.141587
1.139975
1.132562
1.125793
1.127727
1.132884
1.120636
1.120958
1.121281
1.106454
1.10452
1.102264
1.084859
1.080024
1.074222
1.051338
1.040701
1.030065
1.006536
0.995899
0.987197
0.964957
0.956899
0.944651
0.931758
0.927568
0.91532
0.909196
0.909518
0.897915
0.893725
0.896303
0.886634
0.886311
0.885667
0.872452
0.870195
0.86665
0.848923
0.845377
0.831195
0.822815
0.822815
0.8096
0.816046
0.811211
0.802831
0.807666
0.80412
0.804765
0.810567
0.803798
0.8096
0.80541
0.794129
0.793806
0.785426
0.781236
0.783814
0.77479
0.783814
0.779947
0.771889
0.777368
0.77479
0.777046
0.785104
0.781236
0.785426
0.794451
0.788972
0.796063
0.793806
0.793162
0.799286
0.790905
0.789938
0.795096
0.780914
0.78317
0.776401
0.775112
0.785104
0.779947
0.787038
0.787682
0.791228
0.801542
0.799286
0.802831
0.814757
0.808311
0.812501
0.809278
0.807988
0.813145
0.806377
0.80412
0.810244
0.800897
0.801542
0.797029
0.796063
0.802831
0.800253
0.810244
0.817335
0.814757
0.823459
0.824749
0.829261
0.838608
0.835063
0.835708
0.842798
0.834096
0.834741
0.834741
0.826038
0.828939
0.822493
0.821848
0.829583
0.825071
0.836352
0.841509
0.837964
0.8486
0.850212
0.855047
0.864394
0.860526
0.862138
0.870195
0.864071
0.863749
0.869551
0.857947
0.859559
0.852468
0.850212
0.855369
0.8486
0.849567
0.860526
0.856658
0.864071
0.874386
0.871485
0.879543
0.878576
0.880187
0.888245
0.881154
0.87922
0.885022
0.876319
0.876319
0.881154
0.871485
0.875675
0.872452
0.874063
0.883088
0.882443
0.886634
0.898559
0.896625
0.911774
0.914031
0.908873
0.91532
0.921444
0.91113
0.91532
0.90984
0.90984
0.914031
0.907907
0.905973
0.90984
0.90146
0.903716
0.907262
0.899849
0.904683
0.908229
0.904683
0.911774
0.90984
0.912741
0.921766
0.917898
0.917898
0.924345
0.916609
0.916931
0.919832
0.90984
0.908873
0.914353
0.903716
0.908229
0.902749
0.903716
0.91113
0.908551
0.910807
0.920477
0.916609
0.917576
0.926601
0.918865
0.924022
0.927568
0.921122
0.925634
0.926601
0.9237
0.92789
0.921766
0.919832
0.9237
0.917576
0.917576
0.925634
0.921766
0.930146
0.935626
0.930791
0.934337
0.942072
0.932725
0.935303
0.932725
0.92789
0.929179
0.921122
0.917576
0.920477
0.911774
0.909518
0.915642
0.908873
0.920799
0.921444
0.916287
0.926923
0.938527
0.931758
0.940783
0.939494
0.942072
0.948196
0.942072
0.94175
0.946585
0.939494
0.938204
0.944973
0.937237
0.945618
0.939816
0.928213
0.930146
0.92789
0.924667
0.929824
0.92789
0.930791
0.939816
0.938527
0.940461
0.948841
0.942394
0.940461
0.943684
0.93337
0.939171
0.934659
0.9237
0.926279
0.930146
0.919188
0.922088
0.918865
0.920799
0.930791
0.928535
0.931758
0.941428
0.93756
0.938527
0.948841
0.943039
0.948841
0.954643
0.944973
0.949485
0.952386
0.940461
0.944328
0.939494
0.939816
0.946585
0.941428
0.944006
0.952064
0.950775
0.953998
0.967858
0.966891
0.975593
0.979461
0.972048
0.973337
0.976238
0.965924
0.968824
0.967858
0.961734
0.966568
0.963667
0.967858
0.977849
0.978494
0.985907
1.000734
1.005891
1.01685
1.032321
1.034577
1.040379
1.049081
1.042957
1.040057
1.041346
1.028131
1.019751
1.020073
1.00718
1.002023
1.005246
0.996866
0.997511
1.007825
1.004602
1.015883
1.022007
1.018461
1.031032
1.02942
1.018784
1.015883
1.012337
0.993643
0.986552
0.979783
0.960122
0.951419
0.939816
0.92789
0.924022
0.912741
0.907262
0.90984
0.903716
0.904039
0.914031
0.90984
0.918543
0.922733
0.917576
0.921444
0.925634
0.913386
0.913386
0.904683
0.899526
0.901138
0.89308
0.891468
0.899204
0.894047
0.901138
0.905973
0.902105
0.909518
0.917254
0.909196
0.914675
0.90984
0.908873
0.914675
0.909196
0.907584
0.911774
0.90146
0.896303
0.899526
0.887601
0.883088
0.886634
0.87503
0.875675
0.869228
0.86665
0.870195
0.863749
0.861493
0.869551
0.864716
0.872452
0.882766
0.882443
0.897915
0.908873
0.926923
0.956576
0.981395
1.017817
1.067454
1.111289
1.163182
1.224422
1.275348
1.336589
1.402986
1.474218
1.530302
1.596377
1.667287
1.720147
1.775908
1.833926
1.87905
1.910315
1.937067
1.963175
1.958985
1.935456
1.903224
1.858744
1.795892
1.714345
1.630865
1.542872
1.455846
1.353672
1.260199
1.173818
1.07809
0.999445
0.945618
0.892435
0.852146
0.825716
0.788972
0.770277
0.747715
0.729665
0.725153
0.713549
0.721607
0.719351
0.713872
0.724186
0.726764
0.736112
0.754484
0.757707
0.772211
0.778335
0.78736
0.800575
0.800575
0.810889
0.814435
0.809922
0.814112
0.812178
0.813145
0.822493
0.819914
0.82217
0.833774
0.830873
0.839898
0.844088
0.846344
0.858914
0.860848
0.865361
0.875997
0.870195
0.872774
0.874386
0.863427
0.865683
0.867617
0.856336
0.858592
0.853757
0.85408
0.861493
0.856658
0.857947
0.869873
0.866328
0.872452
0.881477
0.875675
0.882121
0.879865
0.881477
0.887923
0.88341
0.881799
0.888245
0.88051
0.889857
0.890501
0.885022
0.892758
0.89727
0.899204
0.90984
0.909196
0.91532
0.925956
0.925634
0.929502
0.940461
0.936593
0.937882
0.942717
0.934014
0.935303
0.935626
0.924022
0.925312
0.927568
0.918543
0.924345
0.921444
0.925634
0.936593
0.938849
0.945295
0.959155
0.958833
0.963345
0.974304
0.969469
0.974949
0.976238
0.967535
0.974304
0.971403
0.960767
0.963667
0.968824
0.961734
0.96818
0.97656
0.979461
0.992998
0.997511
1.006536
1.017494
1.018461
1.022651
1.031999
1.027486
1.026197
1.028453
1.017817
1.012337
1.013627
1.004279
1.001056
1.005891
0.999445
0.999767
1.011048
1.009759
1.016205
1.032966
1.036511
1.045536
1.06423
1.066809
1.073255
1.086793
1.083892
1.084214
1.090016
1.080669
1.076156
1.079057
1.069387
1.068098
1.076156
1.071966
1.076801
1.090338
1.091305
1.098718
1.114512
1.116768
1.124181
1.139008
1.138041
1.141264
1.148355
1.144487
1.144165
1.149322
1.142231
1.140297
1.143198
1.137074
1.13514
1.14062
1.136429
1.139008
1.150289
1.150934
1.158347
1.170595
1.179942
1.180265
1.189612
1.197992
1.188
1.187033
1.188967
1.173496
1.17543
1.163504
1.146744
1.14062
1.136107
1.121281
1.116123
1.120314
1.113545
1.113223
1.121925
1.112578
1.107743
1.108066
1.092917
1.082602
1.076801
1.055528
1.038767
1.027809
1.004279
0.988164
0.984296
0.967535
0.964634
0.958833
0.944651
0.939171
0.942072
0.927246
0.925634
0.918221
0.910807
0.90984
0.900171
0.893402
0.892758
0.877931
0.868262
0.865683
0.846989
0.840865
0.84022
0.824104
0.822815
0.812823
0.807988
0.809922
0.800253
0.80122
0.805087
0.794773
0.798319
0.793806
0.793484
0.798963
0.791872
0.792517
0.798641
0.785104
0.785748
0.776401
0.771244
0.775757
0.766732
0.76931
0.765765
0.766732
0.778013
0.77479
0.782203
0.781236
0.784781
0.792839
0.788327
0.795418
0.796063
0.786715
0.789616
0.782203
0.780269
0.785426
0.778335
0.77898
0.786393
0.77898
0.785748
0.78317
0.786715
0.798319
0.797029
0.803798
0.809278
0.807988
0.816046
0.813145
0.813468
0.820559
0.812178
0.811211
0.815079
0.799608
0.802187
0.795418
0.795096
0.802831
0.797674
0.80412
0.80541
0.806377
0.816046
0.815079
0.81798
0.829583
0.825393
0.831517
0.839898
0.829261
0.834418
0.828617
0.826683
0.833451
0.826038
0.827972
0.836352
0.827972
0.833774
0.832484
0.835708
0.846344
0.843765
0.854402
0.858592
0.853435
0.85827
0.857625
0.857303
0.862782
0.856336
0.854724
0.859559
0.850856
0.853435
0.857303
0.847633
0.853435
0.849567
0.85279
0.861493
0.860204
0.864071
0.875997
0.872452
0.878576
0.885667
0.879543
0.885022
0.88051
0.87922
0.884055
0.875675
0.874386
0.881477
0.874708
0.877609
0.885989
0.878576
0.885022
0.882443
0.885989
0.894692
0.891146
0.894047
0.904039
0.899204
0.910807
0.907262
0.896948
0.897915
0.894369
0.890179
0.892435
0.886634
0.885344
0.891791
0.885667
0.885989
0.895336
0.890824
0.897592
0.907262
0.903072
0.912419
0.910163
0.911452
0.916931
0.910807
0.909196
0.914353
0.905973
0.908551
0.907907
0.896625
0.898882
0.903394
0.891791
0.896948
0.895014
0.897592
0.908551
0.905328
0.907262
0.917254
0.91113
0.918543
0.920477
0.911452
0.914353
0.913064
0.908551
0.912419
0.90565
0.903716
0.907907
0.900493
0.898237
0.905973
0.899204
0.904361
0.911774
0.907584
0.915642
0.915642
0.919188
0.926923
0.922088
0.921444
0.927246
0.91951
0.917898
0.924022
0.914675
0.915642
0.922088
0.913386
0.917898
0.914675
0.917254
0.925312
0.923378
0.925956
0.936593
0.934981
0.939171
0.948518
0.943684
0.953353
0.948518
0.937882
0.93756
0.938849
0.925956
0.92789
0.920477
0.919832
0.924022
0.918865
0.919832
0.92789
0.924989
0.928535
0.943039
0.942394
0.9598
0.961411
0.955609
0.961411
0.965279
0.953998
0.956576
0.950775
0.946585
0.948196
0.939171
0.935948
0.938849
0.930469
0.929502
0.936593
0.931758
0.938204
0.944651
0.940461
0.944651
0.953676
0.946585
0.948196
0.945618
0.939816
0.941105
0.934337
0.93208
0.934659
0.927246
0.925956
0.93208
0.927568
0.92789
0.938204
0.93208
0.936915
0.945295
0.939494
0.946262
0.952709
0.948518
0.95432
0.95013
0.95013
0.957221
0.950775
0.95013
0.955287
0.946585
0.948518
0.951097
0.942394
0.946907
0.954643
0.946907
0.956576
0.956254
0.960767
0.970114
0.969147
0.973659
0.982362
0.976882
0.976882
0.981395
0.973659
0.972048
0.978816
0.972048
0.978494
0.982362
0.977205
0.981073
0.990742
0.986874
0.998155
1.010726
1.010403
1.022329
1.031032
1.032643
1.040057
1.038767
1.036511
1.036511
1.027809
1.021362
1.02104
1.009759
1.004924
1.005891
0.996866
0.99461
1.002023
0.997511
1.002023
1.014271
1.014271
1.019106
1.030065
1.024585
1.020718
1.022329
1.005891
1.002668
0.989453
0.971403
0.965279
0.966246
0.953998
0.954643
0.95432
0.946262
0.95013
0.944973
0.944973
0.949485
0.942072
0.939494
0.94175
0.931436
0.925312
0.927246
0.914675
0.913386
0.911774
0.898882
0.898559
0.894692
0.88889
0.892435
0.887923
0.889212
0.899526
0.898237
0.902105
0.914031
0.910807
0.91532
0.925312
0.917898
0.920477
0.916609
0.911452
0.912741
0.903716
0.900816
0.904039
0.896948
0.895336
0.901783
0.894369
0.895336
0.901783
0.892435
0.895981
0.890179
0.887601
0.888568
0.878576
0.873096
0.875997
0.866005
0.87503
0.873741
0.871162
0.88051
0.890824
0.903072
0.926601
0.947552
0.979783
1.028453
1.075511
1.136107
1.207339
1.269224
1.338523
1.412978
1.488723
1.543194
1.617005
1.673089
1.720469
1.770751
1.821355
1.866157
1.897745
1.929654
1.960274
1.978002
1.970266
1.954795
1.926109
1.880984
1.80814
1.730139
1.646981
1.552864
1.441664
1.336911
1.239893
1.131917
1.038123
0.969791
0.908229
0.863104
0.834096
0.798319
0.779302
0.758674
0.745136
0.740946
0.732244
0.740302
0.739979
0.7345
0.744492
0.74707
0.755773
0.772533
0.774145
0.784137
0.78736
0.792517
0.802187
0.798963
0.804443
0.809278
0.801864
0.807344
0.805087
0.807666
0.816368
0.814112
0.821203
0.829583
0.825716
0.832162
0.832484
0.837319
0.846344
0.845055
0.847311
0.85698
0.85279
0.856013
0.863427
0.855369
0.858914
0.85279
0.851179
0.856336
0.851179
0.856336
0.860848
0.85698
0.865038
0.868906
0.869551
0.880187
0.877931
0.879543
0.886311
0.878576
0.882121
0.881799
0.872129
0.876319
0.884055
0.87503
0.883088
0.882443
0.887923
0.900171
0.899526
0.904683
0.917254
0.915964
0.925312
0.93208
0.924022
0.926923
0.925634
0.921444
0.924345
0.917898
0.917576
0.9237
0.917898
0.917576
0.925312
0.918865
0.930791
0.932403
0.928213
0.935948
0.945295
0.938849
0.94594
0.944651
0.946907
0.955287
0.951097
0.95013
0.955932
0.946907
0.952386
0.952064
0.942394
0.946585
0.952709
0.945618
0.953031
0.952709
0.957543
0.968824
0.969791
0.975593
0.98623
0.984618
0.987519
0.996544
0.991064
0.990742
0.998478
0.991709
0.990742
0.998155
0.992354
1.006536
1.00718
1.003635
1.01137
1.024585
1.024585
1.036511
1.048759
1.047148
1.058106
1.068421
1.062296
1.068743
1.074222
1.065197
1.067454
1.070354
1.060363
1.062619
1.070032
1.06004
1.067454
1.075834
1.075834
1.090016
1.104842
1.105165
1.11709
1.124826
1.125148
1.13095
1.139975
1.132562
1.140297
1.147066
1.137719
1.141264
1.147066
1.138363
1.14352
1.150934
1.147066
1.162537
1.166083
1.164793
1.176719
1.187033
1.186711
1.19219
1.202827
1.198959
1.198637
1.203472
1.195091
1.190257
1.191546
1.178975
1.171562
1.168017
1.154802
1.147711
1.146421
1.143198
1.136429
1.139975
1.139975
1.135785
1.138686
1.139653
1.126115
1.122892
1.120314
1.102586
1.095173
1.088404
1.069387
1.057139
1.051015
1.028453
1.019106
1.011048
0.990742
0.984296
0.982684
0.963345
0.961089
0.949808
0.943039
0.942072
0.929502
0.923378
0.923055
0.909196
0.898882
0.895336
0.877286
0.874708
0.862782
0.845699
0.841509
0.832484
0.826683
0.827327
0.816691
0.811211
0.816368
0.805732
0.808311
0.805732
0.802509
0.805732
0.799286
0.796063
0.79993
0.787038
0.785748
0.777046
0.772211
0.77479
0.766409
0.772533
0.770599
0.763186
0.767376
0.765442
0.767054
0.776401
0.773178
0.776079
0.783814
0.77769
0.784459
0.779624
0.780269
0.788005
0.782203
0.784459
0.77898
0.775434
0.778657
0.770599
0.776079
0.77769
0.770922
0.776401
0.775434
0.77769
0.788327
0.785104
0.789616
0.798963
0.789938
0.796063
0.789938
0.788972
0.795096
0.78736
0.788972
0.796707
0.784781
0.790261
0.785748
0.788649
0.799608
0.797674
0.806054
0.810567
0.813468
0.824104
0.823782
0.826038
0.834096
0.828617
0.829583
0.83603
0.823137
0.82636
0.818947
0.817658
0.822815
0.816046
0.818625
0.824104
0.81798
0.824426
0.825071
0.829906
0.841509
0.840542
0.850212
0.85698
0.851501
0.85827
0.85827
0.856013
0.861171
0.855691
0.85408
0.859559
0.851501
0.85827
0.857303
0.846989
0.851823
0.847956
0.851823
0.861493
0.860204
0.864071
0.875997
0.872129
0.876319
0.883733
0.875353
0.878576
0.873096
0.870195
0.873741
0.865361
0.862138
0.868906
0.861171
0.866005
0.872774
0.865683
0.875353
0.87503
0.879865
0.890824
0.88889
0.899526
0.899526
0.891791
0.894369
0.889534
0.885989
0.88889
0.879865
0.876319
0.880187
0.872774
0.873741
0.883733
0.878576
0.886956
0.886634
0.891791
0.902427
0.901138
0.902749
0.912419
0.906617
0.914031
0.915642
0.904683
0.905973
0.902105
0.896948
0.899849
0.892435
0.890179
0.896303
0.890824
0.894692
0.899526
0.894369
0.902749
0.912741
0.905328
0.914031
0.913064
0.916287
0.924345
0.920477
0.91951
0.924022
0.915964
0.9237
0.917254
0.904683
0.907262
0.90565
0.904683
0.913386
0.912741
0.918543
0.930791
0.929502
0.93337
0.943684
0.93627
0.946262
0.941105
0.929824
0.931113
0.930791
0.919188
0.921122
0.913386
0.912097
0.916931
0.912097
0.913386
0.924345
0.921122
0.93337
0.934659
0.930791
0.93756
0.939171
0.937237
0.942072
0.937237
0.93627
0.939816
0.931113
0.926279
0.930469
0.921122
0.919188
0.925634
0.919188
0.921444
0.931436
0.924667
0.931113
0.931758
0.934981
0.943039
0.94175
0.943684
0.951419
0.945295
0.943039
0.947874
0.937237
0.943361
0.93756
0.925956
0.928535
0.928857
0.922411
0.926923
0.922411
0.924667
0.932725
0.928535
0.930469
0.939816
0.936593
0.942072
0.949808
0.944328
0.948196
0.955932
0.947229
0.948518
0.946907
0.942072
0.946262
0.939816
0.940138
0.945618
0.941105
0.943361
0.95432
0.950452
0.95851
0.966246
0.96399
0.971725
0.981395
0.975915
0.982039
0.983329
0.975593
0.976882
0.967535
0.965279
0.967858
0.963023
0.964957
0.973659
0.973015
0.97656
0.98913
0.988486
0.99461
1.00847
1.007503
1.01685
1.024908
1.020395
1.031676
1.028453
1.01685
1.012982
1.014916
1.002345
1.00299
1.001701
0.993965
0.998155
0.998155
0.999122
1.007825
1.006858
1.01266
1.022329
1.021685
1.024263
1.030387
1.022651
1.016527
1.014594
0.9988
0.988486
0.985585
0.970436
0.960767
0.961089
0.947552
0.952064
0.944651
0.93208
0.93337
0.939171
0.927568
0.931758
0.926279
0.924345
0.926279
0.916931
0.911452
0.913708
0.902427
0.907584
0.902105
0.889212
0.890501
0.885344
0.880187
0.883733
0.878576
0.880187
0.889857
0.886956
0.895014
0.903394
0.900816
0.908873
0.915642
0.910807
0.915964
0.910807
0.908873
0.911452
0.901783
0.896948
0.899204
0.887278
0.894047
0.890179
0.881154
0.88341
0.879865
0.877931
0.883088
0.87503
0.873096
0.876642
0.866972
0.874386
0.869873
0.861493
0.867939
0.869551
0.877286
0.89308
0.902427
0.921122
0.952386
0.977849
1.018139
1.079057
1.13095
1.201215
1.267613
1.329175
1.396862
1.473896
1.53417
1.598633
1.665353
1.726593
1.76785
1.813619
1.861645
1.894844
1.922563
1.943192
1.959952
1.955117
1.930943
1.895488
1.852298
1.7859
1.708544
1.63022
1.538682
1.431672
1.326275
1.227323
1.119669
1.024585
0.956899
0.897592
0.85408
0.823782
0.78736
0.765765
0.752227
0.728376
0.723541
0.711615
0.713872
0.716773
0.711293
0.720318
0.721285
0.728376
0.746426
0.747393
0.760608
0.766409
0.77479
0.790583
0.789938
0.796385
0.802831
0.802831
0.810889
0.810244
0.815724
0.829583
0.828294
0.835385
0.841509
0.84022
0.847311
0.846666
0.849567
0.857947
0.853757
0.864716
0.860848
0.849567
0.852146
0.847311
0.846022
0.853435
0.849889
0.853113
0.866005
0.861815
0.870518
0.878576
0.874708
0.881477
0.878898
0.880832
0.889534
0.882766
0.882766
0.890179
0.881477
0.881477
0.88889
0.878253
0.883088
0.878898
0.881154
0.889212
0.887601
0.890824
0.901138
0.897915
0.911774
0.911452
0.904361
0.910485
0.91113
0.911774
0.919832
0.920155
0.924345
0.934014
0.930469
0.930791
0.938527
0.930791
0.938204
0.936915
0.928857
0.934337
0.941105
0.933692
0.94175
0.939816
0.945295
0.953998
0.953353
0.954643
0.962056
0.956254
0.956254
0.96399
0.956899
0.960444
0.963667
0.957221
0.960444
0.970114
0.964634
0.973982
0.981717
0.981395
0.992354
0.995899
1.00299
1.013949
1.014594
1.017817
1.026519
1.021685
1.021362
1.025875
1.017817
1.01685
1.022329
1.017494
1.019428
1.031032
1.02942
1.035544
1.048115
1.048437
1.052627
1.064875
1.061652
1.062941
1.072288
1.066164
1.070354
1.075511
1.068421
1.077768
1.076801
1.068743
1.081313
1.080991
1.077768
1.094528
1.097751
1.097107
1.1129
1.117413
1.118057
1.136752
1.142231
1.141909
1.156091
1.160926
1.159314
1.165438
1.168017
1.161248
1.158992
1.165438
1.156413
1.154157
1.159959
1.151901
1.151901
1.162215
1.160926
1.166083
1.180265
1.180587
1.185422
1.196058
1.192835
1.193157
1.198959
1.19219
1.188645
1.187356
1.176397
1.17124
1.17124
1.165438
1.159314
1.160603
1.161248
1.150289
1.151578
1.157702
1.148355
1.15319
1.157058
1.146421
1.146744
1.145777
1.128694
1.119991
1.113545
1.090338
1.075189
1.065197
1.038445
1.023618
1.013627
0.990742
0.982684
0.973015
0.962056
0.9598
0.947552
0.941105
0.938204
0.924667
0.91532
0.913386
0.896948
0.892113
0.885989
0.869228
0.865038
0.858592
0.845377
0.843765
0.833129
0.827972
0.833129
0.823137
0.824426
0.820881
0.820236
0.824749
0.817013
0.816368
0.817013
0.804443
0.803476
0.794773
0.790261
0.79155
0.782525
0.788005
0.780914
0.76931
0.770922
0.763831
0.762219
0.768988
0.761575
0.767054
0.766409
0.765765
0.772211
0.768343
0.772856
0.776401
0.768988
0.770922
0.764475
0.763186
0.770277
0.764798
0.770599
0.770277
0.768988
0.776401
0.772856
0.781236
0.785748
0.781558
0.790583
0.790905
0.79574
0.805087
0.80122
0.808955
0.809278
0.798641
0.802187
0.795418
0.793162
0.799286
0.791228
0.793162
0.797674
0.788327
0.794129
0.789294
0.791872
0.802831
0.799608
0.806377
0.808633
0.81379
0.824104
0.821203
0.822493
0.83055
0.821203
0.822815
0.819269
0.819592
0.826038
0.820881
0.821203
0.829583
0.824104
0.82765
0.82765
0.831517
0.841187
0.841187
0.844088
0.85408
0.8486
0.851823
0.854724
0.846666
0.850212
0.843765
0.842154
0.848923
0.843121
0.855047
0.854724
0.847956
0.855047
0.853757
0.85698
0.865683
0.863749
0.866328
0.876642
0.871162
0.873419
0.878576
0.868262
0.869551
0.863427
0.860526
0.864716
0.857625
0.860204
0.864071
0.856658
0.862138
0.863749
0.864394
0.875997
0.876319
0.88341
0.895336
0.892758
0.904683
0.902427
0.894369
0.896948
0.893725
0.890501
0.893402
0.885022
0.881477
0.885344
0.876319
0.882443
0.882766
0.875675
0.882443
0.884377
0.886634
0.896625
0.898559
0.90694
0.920477
0.921122
0.928857
0.933047
0.924022
0.923378
0.925956
0.912097
0.911774
0.903394
0.899849
0.903394
0.897915
0.898237
0.907584
0.905328
0.920155
0.921444
0.918221
0.924345
0.930146
0.921444
0.924989
0.920477
0.91951
0.923378
0.914998
0.910807
0.914998
0.905328
0.914031
0.908551
0.899204
0.903394
0.903394
0.902749
0.911452
0.909518
0.912741
0.921766
0.918221
0.919188
0.928535
0.922733
0.926601
0.933047
0.925634
0.928213
0.924345
0.922733
0.924989
0.918543
0.918543
0.9237
0.917898
0.918865
0.930469
0.927246
0.934014
0.944006
0.93756
0.942072
0.941428
0.936915
0.939816
0.933047
0.929824
0.934014
0.925956
0.924989
0.93208
0.925634
0.936593
0.937882
0.934014
0.943684
0.956576
0.955287
0.969147
0.973982
0.979461
0.988486
0.985585
0.985907
0.989775
0.98075
0.975271
0.978172
0.966891
0.962056
0.965924
0.955609
0.9598
0.959477
0.952064
0.957866
0.969791
0.968824
0.981073
0.991709
0.998155
1.013627
1.017172
1.023618
1.031032
1.026519
1.021685
1.022974
1.011693
1.005891
1.00718
0.9988
0.996221
1.003312
0.998478
1.000734
1.010726
1.006213
1.011048
1.018784
1.01266
1.024908
1.021362
1.012982
1.01266
1.01556
1.002023
1.001056
0.997511
0.983651
0.980106
0.970114
0.9627
0.9627
0.95432
0.950775
0.954643
0.947552
0.945295
0.950452
0.940461
0.942394
0.939494
0.927568
0.924022
0.927568
0.914675
0.914998
0.907262
0.904683
0.907262
0.899204
0.896625
0.901783
0.894692
0.900493
0.903394
0.896948
0.902749
0.910485
0.902427
0.908229
0.903716
0.903394
0.909196
0.899849
0.896948
0.90146
0.890824
0.890179
0.895658
0.887601
0.892758
0.88889
0.889857
0.89727
0.894047
0.895658
0.90565
0.900171
0.909518
0.905973
0.894692
0.89308
0.88889
0.878898
0.878576
0.865038
0.857625
0.860526
0.85408
0.864394
0.873096
0.876319
0.896303
0.913386
0.938849
0.976882
1.013949
1.061974
1.123537
1.173818
1.230869
1.295654
1.350771
1.412011
1.477442
1.54255
1.592187
1.647626
1.708866
1.752701
1.802661
1.860356
1.902902
1.933844
1.962853
1.989283
1.981225
1.951249
1.908703
1.855521
1.78171
1.686948
1.588964
1.488723
1.383325
1.266646
1.170595
1.068098
0.978494
0.924345
0.882766
0.836997
0.811211
0.781881
0.760285
0.749971
0.730954
0.723541
0.715806
0.709037
0.713872
0.708392
0.713872
0.722574
0.72612
0.740624
0.744814
0.76512
0.770277
0.768021
0.779624
0.780591
0.787682
0.801542
0.803153
0.815402
0.829261
0.827005
0.839253
0.84022
0.844732
0.854724
0.850534
0.85827
0.857303
0.847956
0.849245
0.843443
0.842154
0.846989
0.840542
0.839898
0.8486
0.843765
0.849567
0.85279
0.855691
0.866005
0.866328
0.871162
0.882443
0.878576
0.890179
0.886311
0.875997
0.875997
0.873419
0.869228
0.871807
0.865683
0.863749
0.871807
0.867617
0.881477
0.8847
0.882766
0.891468
0.896625
0.901138
0.912741
0.91113
0.913386
0.921444
0.91532
0.913386
0.920477
0.911774
0.911452
0.917254
0.908229
0.914998
0.913386
0.917898
0.927568
0.926923
0.930469
0.941428
0.938527
0.939171
0.948841
0.943684
0.955609
0.954965
0.947229
0.950452
0.953998
0.942717
0.944651
0.939171
0.939171
0.946907
0.944973
0.948841
0.959477
0.957866
0.962378
0.975915
0.975593
0.981073
0.996221
0.992354
1.006858
1.006213
0.997833
0.998155
1.001056
0.98913
0.990742
0.993321
0.984296
0.990742
0.99042
0.996544
1.00847
1.013304
1.024263
1.040379
1.043924
1.049404
1.059396
1.056495
1.058429
1.064553
1.055528
1.051015
1.052305
1.04328
1.040379
1.047148
1.041668
1.042635
1.052305
1.050693
1.05585
1.070354
1.071966
1.078412
1.094206
1.094206
1.101619
1.116123
1.116123
1.121281
1.132239
1.128694
1.132239
1.142876
1.140297
1.144165
1.156091
1.155769
1.159959
1.169951
1.169306
1.173818
1.184455
1.182843
1.185422
1.19219
1.189612
1.187033
1.18929
1.189612
1.177686
1.176397
1.174141
1.160281
1.158669
1.163182
1.154479
1.160281
1.163504
1.156413
1.168339
1.166083
1.159314
1.161893
1.163182
1.151578
1.14481
1.146099
1.130628
1.120636
1.11838
1.099685
1.087115
1.083892
1.066164
1.053594
1.049726
1.031999
1.020718
1.018784
1.002668
1.003957
0.992676
0.97656
0.969147
0.966891
0.949485
0.943039
0.933047
0.919188
0.912097
0.895658
0.884377
0.878898
0.862782
0.852468
0.851179
0.835063
0.833451
0.825393
0.819269
0.821848
0.814435
0.813468
0.819269
0.809922
0.812823
0.807021
0.801542
0.802509
0.792517
0.785748
0.787682
0.775434
0.773823
0.766732
0.764475
0.769955
0.764475
0.769633
0.777368
0.770277
0.775112
0.770922
0.769955
0.776401
0.768343
0.768988
0.764153
0.761897
0.766087
0.758029
0.756418
0.764798
0.752872
0.757062
0.752227
0.755451
0.761252
0.755128
0.762542
0.761897
0.76512
0.777046
0.77479
0.783492
0.785426
0.785748
0.792195
0.788327
0.786071
0.792839
0.782525
0.784137
0.777368
0.775112
0.780591
0.774467
0.776401
0.780914
0.781236
0.790905
0.790905
0.79574
0.808311
0.803476
0.809278
0.807666
0.807988
0.813468
0.807666
0.805732
0.811856
0.801542
0.80412
0.798641
0.797674
0.80412
0.800253
0.81379
0.814112
0.809922
0.818625
0.81798
0.821848
0.833129
0.829906
0.844088
0.842798
0.834418
0.840542
0.835385
0.834741
0.841509
0.83603
0.841509
0.847311
0.842476
0.8486
0.848923
0.851501
0.860204
0.85698
0.85827
0.868584
0.862138
0.865361
0.866005
0.861493
0.865038
0.859237
0.856336
0.859237
0.849889
0.857303
0.85279
0.844088
0.850856
0.847633
0.851823
0.863427
0.861493
0.869228
0.881154
0.877286
0.886956
0.885667
0.887278
0.895014
0.88889
0.887923
0.893725
0.883733
0.88341
0.887278
0.874386
0.876319
0.869228
0.868906
0.875675
0.869873
0.878253
0.884055
0.88051
0.889212
0.895658
0.892435
0.902749
0.900493
0.904683
0.913386
0.908551
0.907907
0.913064
0.903716
0.901138
0.905006
0.893402
0.895336
0.890179
0.890824
0.898882
0.896625
0.900171
0.912419
0.908551
0.913708
0.921122
0.912419
0.91532
0.909196
0.906617
0.908229
0.899204
0.896948
0.90146
0.894369
0.903072
0.903716
0.897592
0.90565
0.910485
0.913064
0.926279
0.92789
0.93337
0.943039
0.937882
0.935303
0.940461
0.928857
0.929502
0.931113
0.918865
0.91951
0.915964
0.912419
0.917898
0.912741
0.913708
0.921444
0.916287
0.919188
0.931113
0.928857
0.935626
0.947874
0.943684
0.951097
0.950452
0.950452
0.956899
0.949163
0.94594
0.949163
0.940461
0.938849
0.946262
0.938527
0.950775
0.951742
0.948196
0.958188
0.970758
0.966246
0.976238
0.977527
0.981717
0.992354
0.992354
0.996221
1.003635
0.999767
0.999767
1.008147
1.004602
1.006858
1.01685
1.012982
1.023296
1.025552
1.018784
1.021685
1.025552
1.015883
1.019106
1.021362
1.010726
1.012337
1.008792
1.003312
1.005569
0.996221
0.991064
0.99042
0.978172
0.97237
0.97237
0.962378
0.959155
0.964312
0.956576
0.966568
0.966891
0.960122
0.96399
0.967858
0.957221
0.960444
0.953353
0.949485
0.949808
0.938527
0.931436
0.931113
0.917576
0.910485
0.913708
0.903394
0.905006
0.91113
0.903394
0.908229
0.904361
0.90565
0.911452
0.905006
0.903394
0.909518
0.900493
0.899526
0.905328
0.894692
0.897915
0.892113
0.890501
0.895658
0.889857
0.889857
0.899204
0.895336
0.900493
0.910485
0.904683
0.911452
0.908229
0.90984
0.914998
0.907584
0.904361
0.907584
0.894369
0.888568
0.88889
0.871162
0.866972
0.856658
0.85279
0.859881
0.857625
0.871162
0.884055
0.889534
0.90984
0.929502
0.949163
0.981717
1.009436
1.047148
1.097107
1.13933
1.188967
1.246662
1.293398
1.348192
1.408788
1.464549
1.515797
1.581873
1.632477
1.677279
1.726593
1.778487
1.822644
1.846496
1.868736
1.882273
1.878728
1.840694
1.793958
1.737552
1.655683
1.572525
1.482276
1.39106
1.282762
1.186711
1.092272
0.9988
0.947229
0.895658
0.8486
0.822493
0.793162
0.770922
0.758996
0.736756
0.723864
0.715161
0.700012
0.697756
0.685508
0.685508
0.680028
0.680995
0.692599
0.693566
0.708392
0.71645
0.729988
0.75126
0.758351
0.776401
0.786715
0.799286
0.817658
0.823137
0.839253
0.848278
0.846022
0.854724
0.853435
0.855691
0.862782
0.858914
0.863104
0.868906
0.862782
0.867295
0.866005
0.866005
0.873096
0.869873
0.872452
0.882121
0.87922
0.885344
0.895336
0.889534
0.896303
0.894047
0.894369
0.902105
0.896948
0.895658
0.903716
0.896625
0.904039
0.906617
0.901138
0.908229
0.908229
0.913386
0.922733
0.922733
0.926923
0.938527
0.936915
0.945618
0.952709
0.948841
0.951097
0.959155
0.947229
0.948196
0.94175
0.939171
0.943361
0.938849
0.939494
0.949808
0.946907
0.951419
0.964634
0.963345
0.975593
0.980428
0.975271
0.981395
0.988164
0.977205
0.979783
0.971725
0.967535
0.969791
0.960767
0.959477
0.964312
0.961089
0.963023
0.975593
0.975271
0.993643
0.997511
0.999122
1.009114
1.022974
1.018784
1.023941
1.031999
1.020395
1.024263
1.017817
1.015238
1.018784
1.01266
1.011693
1.016527
1.01137
1.011693
1.020395
1.019106
1.02523
1.039734
1.041024
1.048115
1.062619
1.061007
1.063586
1.073578
1.068098
1.074867
1.077123
1.06971
1.081313
1.078735
1.071321
1.079379
1.085181
1.081958
1.091627
1.107099
1.108388
1.119024
1.13514
1.135785
1.143843
1.156091
1.151578
1.157702
1.163826
1.153835
1.158347
1.155769
1.143198
1.149967
1.148355
1.142554
1.158025
1.162537
1.163182
1.182521
1.188645
1.188
1.198314
1.207984
1.205728
1.208629
1.220877
1.21443
1.216042
1.221844
1.211529
1.205728
1.205083
1.193157
1.187356
1.191868
1.186389
1.187033
1.194447
1.19219
1.194447
1.201538
1.198314
1.19767
1.201215
1.197025
1.188967
1.185422
1.179298
1.158992
1.149
1.13933
1.11709
1.106454
1.099363
1.077445
1.070354
1.061007
1.05166
1.051338
1.040701
1.0349
1.031999
1.020718
1.012982
1.010403
0.996544
0.987519
0.983973
0.967213
0.953676
0.946907
0.925312
0.918543
0.908229
0.890501
0.885344
0.877286
0.867939
0.867617
0.858592
0.853435
0.855047
0.843121
0.844732
0.839253
0.824749
0.822493
0.811856
0.804443
0.80412
0.791872
0.786393
0.784137
0.774467
0.776079
0.768666
0.766409
0.774467
0.767376
0.772533
0.771244
0.773823
0.784459
0.780914
0.785426
0.795418
0.783814
0.787038
0.779624
0.775434
0.779624
0.768666
0.768666
0.761252
0.758996
0.76512
0.759963
0.764475
0.767376
0.768021
0.778335
0.77769
0.785104
0.790905
0.783814
0.788972
0.784459
0.78317
0.788327
0.778657
0.778657
0.773178
0.771244
0.778335
0.773178
0.777046
0.780591
0.780591
0.790261
0.789294
0.793806
0.807021
0.802187
0.809922
0.806699
0.807344
0.815402
0.812178
0.824426
0.823137
0.814435
0.818302
0.812501
0.811856
0.818302
0.811856
0.816368
0.823459
0.817013
0.825716
0.824104
0.827005
0.837641
0.834741
0.840542
0.849567
0.842154
0.8486
0.844088
0.843443
0.849567
0.841509
0.851823
0.847633
0.839253
0.844088
0.840542
0.843121
0.852146
0.851179
0.860204
0.868584
0.863427
0.869228
0.870195
0.868262
0.87503
0.869873
0.868906
0.875353
0.866972
0.870518
0.873741
0.864716
0.869228
0.864394
0.863749
0.869873
0.865361
0.865361
0.876319
0.871485
0.87922
0.880832
0.881477
0.889212
0.886634
0.886634
0.891791
0.883733
0.890501
0.887923
0.877286
0.877609
0.872774
0.871162
0.876964
0.873741
0.877931
0.890824
0.892435
0.902427
0.914031
0.911774
0.920155
0.917576
0.918221
0.922411
0.914031
0.908551
0.911774
0.899849
0.902749
0.898882
0.886956
0.888568
0.886956
0.885344
0.892758
0.891146
0.895336
0.907907
0.907262
0.918865
0.922733
0.916609
0.923055
0.928857
0.921444
0.925634
0.921122
0.919188
0.925312
0.919188
0.919188
0.927246
0.922088
0.92789
0.931758
0.924989
0.928857
0.928535
0.927568
0.93337
0.928535
0.928213
0.934014
0.926601
0.923055
0.929502
0.91951
0.919832
0.925634
0.915964
0.919832
0.91532
0.91532
0.921444
0.918543
0.919832
0.929824
0.928213
0.94175
0.945618
0.942394
0.951419
0.953353
0.949808
0.951742
0.943684
0.939494
0.940783
0.931113
0.927568
0.933047
0.924667
0.931113
0.932403
0.924989
0.93208
0.934014
0.93337
0.942072
0.94175
0.944651
0.951419
0.946585
0.945295
0.950775
0.94175
0.942394
0.942717
0.932403
0.932403
0.93756
0.929179
0.934659
0.933692
0.936593
0.94594
0.945295
0.950452
0.961734
0.960444
0.964634
0.977205
0.973337
0.98623
0.984296
0.974626
0.978172
0.982039
0.971725
0.973659
0.966568
0.964634
0.96818
0.963667
0.964634
0.974304
0.973659
0.977849
0.992031
0.990742
1.001056
1.010081
1.00847
1.017817
1.020395
1.011048
1.013304
1.014271
1.002668
1.003957
1.001379
0.998155
1.002668
1.000734
1.002668
1.014271
1.013949
1.019428
1.030387
1.027486
1.030065
1.036833
1.028775
1.026519
1.029742
1.018139
1.009759
1.00847
0.992998
0.99461
0.98494
0.971081
0.969147
0.971081
0.957866
0.961089
0.953031
0.949163
0.951419
0.943361
0.940138
0.944651
0.934014
0.93337
0.937882
0.925956
0.926601
0.919188
0.913708
0.914998
0.90565
0.901783
0.906617
0.898237
0.904361
0.905973
0.898559
0.905006
0.903394
0.905973
0.913708
0.910807
0.911452
0.921122
0.915964
0.926601
0.923378
0.913386
0.913386
0.908873
0.900493
0.902749
0.895336
0.895014
0.900816
0.896303
0.901783
0.907262
0.900493
0.905006
0.906295
0.895981
0.897592
0.887601
0.881477
0.882121
0.868906
0.871485
0.869228
0.861171
0.868262
0.872452
0.884055
0.904361
0.916931
0.940783
0.978816
1.013627
1.063908
1.128049
1.177686
1.233769
1.2992
1.350448
1.40911
1.475185
1.529012
1.586063
1.644402
1.702742
1.74561
1.793636
1.845529
1.892587
1.919985
1.948993
1.9722
1.978324
1.953506
1.91934
1.873248
1.811363
1.722081
1.628931
1.534814
1.420391
1.309836
1.204116
1.093561
1.002345
0.940783
0.886634
0.846344
0.820559
0.788327
0.769955
0.757384
0.73869
0.735789
0.72612
0.731599
0.728376
0.717417
0.722897
0.720318
0.731277
0.738045
0.737079
0.748682
0.75126
0.758674
0.774467
0.774145
0.786071
0.790905
0.797996
0.810244
0.811534
0.820559
0.833129
0.829583
0.839898
0.839253
0.841187
0.849245
0.842154
0.843121
0.849245
0.839253
0.842476
0.838286
0.837319
0.845699
0.841187
0.846344
0.85827
0.854724
0.865683
0.867617
0.872774
0.883088
0.879543
0.887601
0.885667
0.875353
0.87503
0.869228
0.866972
0.871485
0.866328
0.866005
0.875353
0.869228
0.874063
0.885022
0.880832
0.890824
0.892758
0.899204
0.90984
0.90694
0.908551
0.917254
0.908873
0.908551
0.913064
0.900493
0.903072
0.895336
0.893402
0.897592
0.892758
0.894369
0.906295
0.904039
0.912419
0.926923
0.926923
0.939494
0.941105
0.946262
0.95432
0.95013
0.948841
0.953353
0.944973
0.942394
0.948841
0.938849
0.94175
0.944651
0.935303
0.939494
0.940783
0.940138
0.949485
0.948841
0.953676
0.964634
0.964312
0.970114
0.983006
0.981395
0.990742
0.996221
0.99042
0.997188
0.995899
0.984618
0.987197
0.991064
0.981717
0.985907
0.983006
0.98494
0.99461
0.993321
0.9988
1.012337
1.015238
1.022329
1.036511
1.035544
1.037478
1.045214
1.037156
1.034255
1.038767
1.031999
1.031999
1.041668
1.037478
1.048437
1.055528
1.054239
1.073578
1.084214
1.088727
1.105487
1.119024
1.117413
1.126438
1.132562
1.125471
1.130628
1.13095
1.11838
1.119669
1.118702
1.107099
1.109999
1.114834
1.10871
1.114834
1.127405
1.125148
1.138363
1.150289
1.154479
1.169306
1.184455
1.179942
1.186389
1.188323
1.176075
1.174141
1.172529
1.158025
1.151901
1.152223
1.138686
1.135463
1.13933
1.129016
1.131272
1.13514
1.126115
1.131272
1.134818
1.127405
1.131595
1.134496
1.123859
1.126115
1.123537
1.110966
1.109355
1.103875
1.084214
1.074545
1.066809
1.045858
1.0378
1.0349
1.018461
1.01556
1.00847
0.993643
0.987841
0.973982
0.96399
0.959155
0.944651
0.935948
0.932403
0.917254
0.90694
0.904039
0.887923
0.881477
0.878576
0.86246
0.861171
0.851179
0.848278
0.850534
0.842476
0.846344
0.846666
0.837319
0.838608
0.834096
0.831195
0.833129
0.821848
0.81379
0.813468
0.798963
0.794451
0.785426
0.780591
0.78317
0.774467
0.77898
0.781881
0.777046
0.787038
0.788327
0.793484
0.805087
0.799608
0.80412
0.798963
0.796063
0.798641
0.789938
0.791228
0.791228
0.779302
0.780591
0.774145
0.772211
0.77898
0.771889
0.777046
0.775434
0.77479
0.78317
0.780914
0.790583
0.794451
0.788649
0.794129
0.792195
0.792195
0.80122
0.796063
0.797674
0.806054
0.794451
0.797996
0.791872
0.790905
0.798641
0.793484
0.798963
0.798641
0.802831
0.813468
0.812501
0.827327
0.827972
0.822815
0.829906
0.825716
0.827005
0.832162
0.824426
0.833129
0.828617
0.818625
0.822493
0.818625
0.820236
0.830228
0.827327
0.836674
0.844732
0.841187
0.8486
0.846666
0.848278
0.855369
0.849245
0.85698
0.856336
0.846022
0.849889
0.84441
0.843765
0.850856
0.846666
0.852146
0.861171
0.856658
0.864394
0.863749
0.865361
0.871807
0.868262
0.869873
0.878576
0.872452
0.874063
0.879543
0.868906
0.869873
0.862138
0.859559
0.863749
0.856658
0.865683
0.866972
0.860848
0.869551
0.870195
0.875675
0.886311
0.887278
0.890824
0.901783
0.896948
0.90694
0.905328
0.894692
0.895658
0.887278
0.882766
0.882766
0.874063
0.87084
0.876319
0.868906
0.87084
0.879865
0.873419
0.881477
0.879865
0.88341
0.89308
0.889857
0.898559
0.902427
0.897915
0.906295
0.913386
0.903072
0.907584
0.900816
0.899204
0.903394
0.89727
0.896303
0.90565
0.897915
0.904039
0.910163
0.904361
0.911452
0.91113
0.914675
0.923055
0.917898
0.916287
0.921766
0.910485
0.907584
0.910163
0.896625
0.897915
0.892113
0.892113
0.897915
0.894692
0.89727
0.910163
0.908551
0.913708
0.924345
0.918543
0.9237
0.921444
0.921444
0.928213
0.922733
0.923055
0.928535
0.919832
0.925956
0.920799
0.910163
0.912097
0.90565
0.905973
0.912741
0.908873
0.915642
0.9237
0.919832
0.929179
0.934981
0.929824
0.935626
0.93208
0.931758
0.93756
0.931758
0.930146
0.93627
0.926923
0.933047
0.930146
0.918865
0.920155
0.917576
0.916931
0.924022
0.921122
0.922733
0.933047
0.930791
0.940461
0.948518
0.944328
0.948518
0.954643
0.942717
0.944651
0.936915
0.933692
0.935626
0.928213
0.926279
0.93337
0.92789
0.940461
0.939816
0.934659
0.942072
0.949485
0.94594
0.953676
0.952064
0.953998
0.958833
0.953031
0.95013
0.956254
0.947552
0.958188
0.956254
0.949808
0.957543
0.965924
0.961734
0.971081
0.973659
0.980428
0.992031
0.993643
1.000089
1.01266
1.011693
1.01556
1.025875
1.020073
1.018139
1.022974
1.012337
1.020395
1.013627
1.004924
1.006858
1.014271
1.004602
1.007825
1.006536
1.003635
1.009759
1.006213
1.008792
1.014916
1.009114
1.008147
1.010726
1.001056
0.995577
0.995254
0.980106
0.977527
0.971081
0.956576
0.951742
0.953353
0.940138
0.938849
0.934981
0.928213
0.931436
0.924667
0.922733
0.926923
0.917898
0.914353
0.919188
0.908229
0.908229
0.905006
0.896625
0.898237
0.891146
0.88889
0.893402
0.886634
0.889534
0.893725
0.887923
0.893402
0.895658
0.895981
0.903716
0.899849
0.900493
0.90694
0.899849
0.907907
0.903716
0.892758
0.894047
0.890824
0.88889
0.894692
0.890179
0.890179
0.896948
0.891146
0.899849
0.898559
0.888568
0.889534
0.881477
0.876642
0.876319
0.866972
0.863104
0.868906
0.861171
0.868262
0.87922
0.877609
0.895658
0.907262
0.930146
0.965924
0.997833
1.046825
1.110644
1.164471
1.226356
1.2992
1.36044
1.430061
1.507739
1.571236
1.636344
1.697907
1.757214
1.797181
1.841017
1.886141
1.929332
1.952216
1.973167
1.986382
1.983481
1.951894
1.911282
1.860678
1.799115
1.711445
1.621518
1.530624
1.422325
1.31596
1.213786
1.109677
1.012015
0.94594
0.888568
0.846022
0.817335
0.782848
0.767699
0.75255
0.730632
0.727087
0.716773
0.713872
0.722574
0.717095
0.725475
0.727087
0.732888
0.749004
0.749649
0.762864
0.768021
0.775434
0.788649
0.78736
0.791872
0.804443
0.796707
0.804443
0.803798
0.808955
0.822815
0.822815
0.833129
0.837964
0.843121
0.855047
0.854724
0.856336
0.865683
0.856658
0.857947
0.85827
0.845055
0.845699
0.836997
0.834096
0.839898
0.833774
0.837319
0.8486
0.842154
0.85279
0.851179
0.856658
0.868584
0.866972
0.881154
0.882766
0.876319
0.879865
0.876964
0.875997
0.879865
0.873096
0.872129
0.879543
0.87503
0.881477
0.891791
0.88889
0.899204
0.899204
0.905006
0.913708
0.91113
0.913064
0.922088
0.915964
0.926279
0.923378
0.914675
0.916609
0.919188
0.910163
0.914675
0.91113
0.912419
0.91951
0.915964
0.918865
0.93208
0.931436
0.946585
0.955287
0.953031
0.962378
0.968824
0.966568
0.970758
0.964312
0.961734
0.961734
0.953031
0.95013
0.954643
0.947552
0.948196
0.958188
0.954965
0.964634
0.97656
0.976238
0.989453
1.004279
1.000734
1.01137
1.009114
1.009436
1.013949
1.00718
1.004279
1.008147
0.999767
0.997511
1.003957
0.996221
0.996221
1.005569
1.002023
1.011048
1.022007
1.020073
1.036833
1.042957
1.042313
1.052305
1.064875
1.061007
1.070032
1.074867
1.066164
1.068743
1.071966
1.066164
1.071321
1.074222
1.072611
1.081958
1.084536
